frame_id,dx,dy,dz,angle,x,y,z,qx,qy,qz,qw
1,-0.30144511862396406,0.0,-0.015163442985509812,-0.8554118784300526,-0.30865147738992443,0.5208785368507859,0.42145873531395417,0.0,0.0,0.004769717494533233,0.9999886248328139
2,-0.2951617326625945,0.0,-0.015163442985509812,-0.8228025281678315,-0.206504373268693,0.525191911952692,0.42651321630912414,0.0,0.0,-0.01705167759118543,0.9998546095764755
3,-0.2878146749927897,3.469446951953614e-18,-0.015163442985509812,-0.772926055904323,-0.10578867189494918,0.5266297036533273,0.43156769730429406,0.0,0.0,-0.047019842940391875,0.9988939555177321
4,-0.2806892424044721,6.938893903907228e-18,-0.015163442985509812,-0.7092275007145882,-0.007220074642436813,0.5237541202520566,0.436622178299464,0.0,0.0,-0.08335184098269012,0.9965201807313269
5,-0.2749012334198027,-1.3877787807814457e-17,-0.015163442985509756,-0.6375281851129443,0.08848571711510034,0.5151273700482446,0.44167665929463396,0.0,0.0,-0.12307369788266137,0.9923975336978057
6,-0.2710067410407169,-1.3877787807814457e-17,-0.015163442985509812,-0.5639799024858487,0.18075336395225805,0.4995936382268834,0.4467311402898039,0.0,0.0,-0.163053090191741,0.9866172965131536
7,-0.26897115175038766,0.0,-0.015163442985509812,-0.4908816181806127,0.2695689742369902,0.47712501751547554,0.4517856212849738,0.0,0.0,-0.20209954491111853,0.9793649850524159
8,-0.268631992017731,0.0,-0.015163442985509812,-0.4193574068453067,0.35505901828559044,0.44797557752715067,0.4568401022801437,0.0,0.0,-0.23962803166603971,0.970864772478567
9,-0.2697998921613691,0.0,-0.015163442985509812,-0.3503505691106119,0.43734996641435236,0.4123993878750388,0.4618945832753137,0.0,0.0,-0.2751673675665746,0.9613963385755542
10,-0.2722694660162392,-2.7755575615628914e-17,-0.015163442985509812,-0.28457685253568266,0.5165682889395694,0.3706505181722698,0.4669490642704836,0.0,0.0,-0.3083825706201999,0.9512624191765789
11,-0.27583004766518515,-2.7755575615628914e-17,-0.015163442985509812,-0.22251265523517716,0.5928404561775353,0.32298303803197337,0.4720035452656535,0.0,0.0,-0.33907604161514243,0.940758969132161
12,-0.2802748965336255,0.0,-0.015163442985509756,-0.16441208144194863,0.6662929384445435,0.26965101706727956,0.4770580262608235,0.0,0.0,-0.36717243835603053,0.93015289093336
13,-0.2854081209716215,0.0,-0.015163442985509812,-0.1103422835363792,0.7370522060568877,0.21090852489131834,0.4821125072559934,0.0,0.0,-0.3926943170513274,0.9196690564304051
14,-0.29104917874758346,2.7755575615628914e-17,-0.015163442985509867,-0.0602263891003183,0.8052447293308613,0.14700963111721935,0.48716698825116334,0.0,0.0,-0.415735121087988,0.9094857388073526
15,-0.2970352327619041,0.0,-0.015163442985509867,-0.013885837366918619,0.8709969785827577,0.07820840535811266,0.49222146924633325,0.0,0.0,-0.4364341351574678,0.8997362089353486
16,-0.3032218416258748,0.0,-0.015163442985509812,0.02892274006484441,0.9344354241288709,0.004758917227127901,0.49727595024150323,0.0,0.0,-0.4549558212521679,0.89051400927148
17,-0.3094824966235656,-2.7755575615628914e-17,-0.015163442985509756,0.06847810537430121,0.9956865362854942,-0.07308476366260491,0.5023304312366732,0.0,0.0,-0.4714742268012303,0.8818798407165128
18,-0.3157074507822508,2.7755575615628914e-17,-0.015163442985509756,0.10507255474385269,1.0548767853689214,-0.15506856769795568,0.5073849122318431,0.0,0.0,-0.48616210266700016,0.8738686456959085
19,-0.32180218234733143,-2.7755575615628914e-17,-0.015163442985509756,0.13899666912764586,1.1121326416954453,-0.24093842526579493,0.512439393227013,0.0,0.0,-0.49918388823714266,0.8664960736924593
20,-0.327685731294161,0.0,-0.015163442985509756,0.17052934721010682,1.1675805755813606,-0.3304402667529923,0.517493874222183,0.0,0.0,-0.5106916152755416,0.8597639641711312
21,-0.3332890611546925,2.7755575615628914e-17,-0.015163442985509867,0.19993178934873923,1.22134705734296,-0.42332002254641865,0.5225483552173529,0.0,0.0,-0.5208228734640745,0.8536647670348265
22,-0.3385535340876872,0.0,-0.015163442985509867,0.22744428020240537,1.2735585572965373,-0.5193236230329432,0.5276028362125228,0.0,0.0,-0.5297001471709337,0.8481849763389417
23,-0.34342954293761896,0.0,-0.015163442985509867,0.2532848537289306,1.3243415457583865,-0.6181969985994371,0.5326573172076927,0.0,0.0,-0.5374310068584164,0.8433077213373235
24,-0.3478753157776578,0.0,-0.015163442985509756,0.2776491518280326,1.3738224930448004,-0.7196860796327696,0.5377117982028627,0.0,0.0,-0.5441087889168944,0.8390146755709286
25,-0.35185589168456693,2.7755575615628914e-17,-0.015163442985509756,0.30071097963795623,1.422127869472073,-0.8235367965198108,0.5427662791980327,0.0,0.0,-0.5498135154056114,0.8352874345261776
26,-0.35534225752665394,0.0,-0.015163442985509756,0.32262320989449966,1.4693841453564982,-0.9294950796474315,0.5478207601932026,0.0,0.0,-0.5546128915741538,0.8321084908230152
27,-0.3583106315683083,1.3877787807814457e-17,-0.015163442985509756,0.3435187992546913,1.5157177910143684,-1.0373068594025017,0.5528752411883725,0.0,0.0,-0.5585632795511716,0.8294619115649855
28,-0.36074187875785896,-4.163336342344337e-17,-0.015163442985509867,0.36351175808900993,1.561255276761978,-1.146718066171891,0.5579297221835424,0.0,0.0,-0.5617105873611723,0.8273337996518496
29,-0.36262104338141704,0.0,-0.015163442985509867,0.3826979694049293,1.6061230729156217,-1.2574746303424704,0.5629842031787123,0.0,0.0,-0.5640910389083292,0.8257126012259481
30,-0.36393698652224477,4.163336342344337e-17,-0.015163442985509867,0.40115578883866754,1.650447649791591,-1.369322482301108,0.5680386841738823,0.0,0.0,-0.5657318070632592,0.8245893053374748
31,-0.36468211797594347,1.3877787807814457e-17,-0.015163442985509756,0.4189463813300488,1.6943554777061798,-1.482007552434677,0.5730931651690523,0.0,0.0,-0.566651501717101,0.8239575690542288
32,-0.36485221466312073,-2.7755575615628914e-17,-0.015163442985509756,0.4361137652581293,1.7379730269756832,-1.5952757711300456,0.5781476461642222,0.0,0.0,-0.5668605099302253,0.8238137910241883
33,-0.3644463200147007,-4.163336342344337e-17,-0.015163442985509756,0.45268454455955764,1.7814267679163933,-1.7088730687740836,0.5832021271593921,0.0,0.0,-0.5663611877202188,0.8241571482697599
34,-0.3634667212252176,0.0,-0.015163442985509756,0.4686673160535758,1.8248431708446038,-1.8225453757536623,0.588256608154562,0.0,0.0,-0.5651479037482253,0.8249896041096437
35,-0.36191900366809837,-2.7755575615628914e-17,-0.015163442985509867,0.484051744755863,1.8683487060766086,-1.9360386224556507,0.593311089149732,0.0,0.0,-0.5632069350123308,0.8263158889637886
36,-0.3598121841593471,0.0,-0.015163442985509867,0.4988073060147884,1.9120698439287018,-2.0490987392669195,0.5983655701449019,0.0,0.0,-0.5605162143186841,0.8281434498236709
37,-0.3571589271625521,5.551115123125783e-17,-0.015163442985509867,0.5128817014081067,1.956133054717176,-2.1614716565743395,0.6034200511400718,0.0,0.0,-0.5570449294167832,0.8304823577963899
38,-0.3539758504568183,0.0,-0.015163442985509756,0.5261989671502444,2.0006648087583248,-2.27290330476478,0.6084745321352418,0.0,0.0,-0.5527529749820359,0.8333451557719099
39,-0.35028392921592194,2.7755575615628914e-17,-0.015163442985509756,0.5386573111956318,2.045791576368443,-2.383139614225111,0.6135290131304117,0.0,0.0,-0.5475902620504569,0.8367466192985257
40,-0.34610900978740006,2.7755575615628914e-17,-0.015163442985509867,0.5501267406318662,2.091639827863823,-2.4919265153422026,0.6185834941255817,0.0,0.0,-0.5414958963724167,0.840703392530227
41,-0.34148244652820875,-2.7755575615628914e-17,-0.015163442985509756,0.5604465773043579,2.138336033560759,-2.599009938502926,0.6236379751207516,0.0,0.0,-0.5343972493277473,0.8452334469902013
42,-0.3364418764995326,5.551115123125783e-17,-0.015163442985509867,0.5694230106533126,2.1860066637755438,-2.7041358140941503,0.6286924561159215,0.0,0.0,-0.5262089651815463,0.8503552933701102
43,-0.3310321470428105,-2.7755575615628914e-17,-0.015163442985509756,0.5768269070955483,2.2347781888244698,-2.807050072502746,0.6337469371110915,0.0,0.0,-0.5168319802045375,0.8560868555455436
44,-0.3253064092657507,0.0,-0.015163442985509867,0.5823921902678117,2.284777079023834,-2.907498644115583,0.6388014181062613,0.0,0.0,-0.5061526773248641,0.8624438922253852
45,-0.31932738472605915,-2.7755575615628914e-17,-0.015163442985509756,0.5858152312939964,2.3361298046899277,-3.0052274593195314,0.6438558991014314,0.0,0.0,-0.49404237034065795,0.8694378277416874
46,-0.313168800837727,0.0,-0.015163442985509756,0.5867558460130303,2.388962836139045,-3.0999824485014615,0.6489103800966013,0.0,0.0,-0.4803574104061401,0.8770728352126219
47,-0.30691696956715486,2.7755575615628914e-17,-0.015163442985509867,0.584840683211018,2.443402643687479,-3.191509542048243,0.6539648610917712,0.0,0.0,-0.46494033882335817,0.8853420137635065
48,-0.30067244976678476,-2.7755575615628914e-17,-0.015163442985509756,0.5796699854913393,2.4995756976515247,-3.2795546703467475,0.6590193420869411,0.0,0.0,-0.44762267220262986,0.8942225356868261
49,-0.29455168149545863,2.7755575615628914e-17,-0.015163442985509867,0.5708288637307909,2.5576084683474734,-3.3638637637838427,0.664073823082111,0.0,0.0,-0.42823008239814714,0.9036697386375601
50,-0.2886884072829161,-2.7755575615628914e-17,-0.015163442985509756,0.557904246565317,2.6176274260916195,-3.4441827527464013,0.6691283040772811,0.0,0.0,-0.40659088032590773,0.9136103414671943
51,-0.283234600718249,0.0,-0.015163442985509867,0.5405083689092423,2.679759041200257,-3.5202575676212904,0.6741827850724509,0.0,0.0,-0.38254874153850504,0.9239353117763743
52,-0.2783605160707445,0.0,-0.015163442985509756,0.5183087689282406,2.7441297839896794,-3.5918341387953836,0.6792372660676209,0.0,0.0,-0.35598037644794744,0.9344934304659277
53,-0.2742533787956161,-2.7755575615628914e-17,-0.015163442985509756,0.49106289678949755,2.8108661247761813,-3.65865839665555,0.6842917470627908,0.0,0.0,-0.3268181553643888,0.9450872411180982
54,-0.2711142025912239,0.0,-0.015163442985509867,0.4586521843250177,2.880094533876054,-3.720476271588656,0.6893462280579608,0.0,0.0,-0.29507637073377135,0.9554736707176111
55,-0.2691523114825228,0.0,-0.015163442985509756,0.42110539080859427,2.951941481605593,-3.7770336939815756,0.6944007090531307,0.0,0.0,-0.2608778487217851,0.9653718185478036
56,-0.2685774333994985,0.0,-0.015163442985509867,0.3785936858905598,3.0265334382810907,-3.82807659422118,0.6994551900483006,0.0,0.0,-0.22447539885646803,0.9744797562331552
57,-0.26958973898004346,0.0,-0.015163442985509756,0.33136824475660437,3.103996874218841,-3.8733509026943373,0.7045096710434706,0.0,0.0,-0.18626106207182913,0.982500288425339
58,-0.27236884699484537,0.0,-0.015163442985509867,0.27958621878060985,3.1844582597351385,-3.912602549787917,0.7095641520386404,0.0,0.0,-0.14675661201848103,0.9891726324706204
59,-0.2770580785657131,0.0,-0.015163442985509756,0.22301359377887706,3.268044065146274,-3.9455774658887908,0.7146186330338105,0.0,0.0,-0.10661987972340177,0.9942998547962115
60,-0.28349925703064377,0.0,-0.015163442985509756,0.16445040212186135,3.354880760768543,-3.9720215813838253,0.7196731140289804,0.0,0.0,-0.06787542767659066,0.9976938038886078
61,-0.2908734614441671,-3.469446951953614e-18,-0.015163442985509867,0.11054971950732498,3.44509481691824,-3.9916808266598967,0.7247275950241503,0.0,0.0,-0.03383566290774242,0.9994274100281589
