frame_id,dx,dy,dz,angle,x,y,z,qx,qy,qz,qw
1,-0.3014641576660423,0.0,-0.025247957228817786,-0.7839774238694034,-0.002556964192654111,-0.389075505049167,0.27870479839540196,0.0,0.0,0.005237696071197171,0.9999862831758572
2,-0.2951403679715122,0.0,-0.02524795722881773,-0.747823478647613,0.09961446169155559,-0.3843386371222,0.28712078413834125,0.0,0.0,-0.01872775090617096,0.9998246202939776
3,-0.2879276155935355,-3.469446951953614e-18,-0.025247957228817786,-0.6925892082922022,0.20033827031962553,-0.38275968114654435,0.29553676988128047,0.0,0.0,-0.051612462324952424,0.9986671886733615
4,-0.2812463841561223,0.0,-0.02524795722881773,-0.6223627427922847,0.2988906530634857,-0.38591759309785567,0.30395275562421975,0.0,0.0,-0.09129215646881039,0.9958241522313436
5,-0.27626242726951294,0.0,-0.025247957228817786,-0.5440098434413158,0.3945478012950663,-0.39539132895178963,0.312368741367159,0.0,0.0,-0.1342537985608991,0.9909469802022556
6,-0.2734651269682285,-1.3877787807814457e-17,-0.02524795722881773,-0.464698492230196,0.4867318961050901,-0.41244137467696906,0.32078472711009826,0.0,0.0,-0.17685029102378774,0.9842377632283784
7,-0.2727228526136569,1.3877787807814457e-17,-0.025247957228817786,-0.3871133142082923,0.5754490774594501,-0.437054336213885,0.3292007128530375,0.0,0.0,-0.21770431998454343,0.9760147688739487
8,-0.273779191181882,0.0,-0.02524795722881773,-0.31248296303601153,0.6608514750428323,-0.46889834949599574,0.33761669859597676,0.0,0.0,-0.25619474698882605,0.9666251867271675
9,-0.2763559787472914,0.0,-0.025247957228817786,-0.24171474590633413,0.7430912185399224,-0.5076415504567595,0.346032684338916,0.0,0.0,-0.29189137329506687,0.9564514761324382
10,-0.2801700795306539,-2.7755575615628914e-17,-0.02524795722881773,-0.17537980623535387,0.8223204376354064,-0.5529520750296344,0.35444867008185527,0.0,0.0,-0.32455585212065985,0.9458665333197027
11,-0.28494728749100723,0.0,-0.02524795722881773,-0.1137446556147157,0.8986912620139701,-0.604498059148079,0.3628646558247945,0.0,0.0,-0.3541164094997184,0.9352013518612062
12,-0.2904321697242242,0.0,-0.02524795722881773,-0.056829568016335985,0.9723558213602991,-0.6619476387455511,0.37128064156773377,0.0,0.0,-0.38062915426220545,0.9247277690897133
13,-0.29639383392412966,0.0,-0.025247957228817786,-0.004475289062694787,1.0434662453590793,-0.7249689497555091,0.379696627310673,0.0,0.0,-0.4042371990745225,0.9146541897812446
14,-0.30262831656530836,0.0,-0.025247957228817786,0.04359482765452827,1.112174663694997,-0.7932301281114114,0.3881126130536122,0.0,0.0,-0.425134718437701,0.9051300852247133
15,-0.3089585480000856,0.0,-0.02524795722881773,0.08772378946456538,1.1786332060527371,-0.8663993097467158,0.3965285987965515,0.0,0.0,-0.44353899904654975,0.8962550732491196
16,-0.31523280368230727,2.7755575615628914e-17,-0.02524795722881773,0.12828273841352167,1.242994002116986,-0.9441446305948809,0.4049445845394908,0.0,0.0,-0.4596707152810585,0.8880894287812462
17,-0.3213223613520365,0.0,-0.025247957228817786,0.165644425341141,1.3054091815724302,-1.0261342265893652,0.41336057028243,0.0,0.0,-0.47374120825978255,0.8806641059998763
18,-0.3271188668142839,-5.551115123125783e-17,-0.025247957228817786,0.20016610134241253,1.3660308741037541,-1.1120362336636263,0.42177655602536923,0.0,0.0,-0.4859450813972464,0.8739893465402331
19,-0.33253172379555057,-2.7755575615628914e-17,-0.02524795722881773,0.2321793647395426,1.4250112093956449,-1.2015187877511226,0.4301925417683085,0.0,0.0,-0.49645650627071647,0.8680615976884786
20,-0.33748568449248784,2.7755575615628914e-17,-0.02524795722881773,0.26198480532194424,1.482502317132787,-1.2942500247853124,0.4386085275112478,0.0,0.0,-0.505427935687938,0.8628688207521638
21,-0.34191872445682714,-2.7755575615628914e-17,-0.02524795722881773,0.28984974808149655,1.5386563269998672,-1.3898980806996544,0.447024513254187,0.0,0.0,-0.5129902618854185,0.8583944263628054
22,-0.3457802284359796,0.0,-0.025247957228817786,0.3160078485982487,1.5936253686815716,-1.4881310914276056,0.45544049899712624,0.0,0.0,-0.5192537542693583,0.8546201136628935
23,-0.3490294819805933,2.7755575615628914e-17,-0.02524795722881773,0.34065966490752164,1.647561571862585,-1.5886171929026258,0.4638564847400655,0.0,0.0,-0.5243093388323974,0.8515278722467834
24,-0.3516344482147444,2.7755575615628914e-17,-0.02524795722881773,0.36397361273569295,1.700617066227594,-1.6910245210581722,0.47227247048300475,0.0,0.0,-0.5282299434627314,0.8491013642842411
25,-0.35357080377040795,0.0,-0.025247957228817675,0.38608691245155147,1.7529439814612837,-1.7950212118277031,0.480688456225944,0.0,0.0,-0.5310717425925701,0.8473268579596017
26,-0.35482120828071756,0.0,-0.025247957228817786,0.4071062743012466,1.8046944472483415,-1.9002754011446767,0.48910444196888325,0.0,0.0,-0.5328752049946976,0.8461938406191922
27,-0.3553747853637477,0.0,-0.025247957228817786,0.4271081608252052,1.856020593273451,-2.006455224942552,0.4975204277118225,0.0,0.0,-0.5336658919535726,0.8456954036563032
28,-0.3552267981550511,-2.7755575615628914e-17,-0.025247957228817786,0.44613852650265196,1.9070745492213002,-2.1132288191547866,0.5059364134547617,0.0,0.0,-0.5334549786495878,0.8458284611869996
29,-0.3543785083058262,2.7755575615628914e-17,-0.025247957228817786,0.4642119763054965,1.9580084447765738,-2.2202643197148384,0.514352399197701,0.0,0.0,-0.5322394860715665,0.8465938397285175
30,-0.3528372135186723,-2.7755575615628914e-17,-0.025247957228817675,0.4813103161314394,2.0089744096239572,-2.327229862556166,0.5227683849406403,0.0,0.0,-0.5300022189648264,0.8479962546452432
31,-0.3506164649392798,-5.551115123125783e-17,-0.025247957228817786,0.49738049648514393,2.060124573448136,-2.433793583612227,0.5311843706835795,0.0,0.0,-0.5267114109507138,0.85004416919023
32,-0.34773647194662016,2.7755575615628914e-17,-0.025247957228817675,0.5123319828799979,2.1116110659337983,-2.5396236188164814,0.5396003564265188,0.0,0.0,-0.5223200842545914,0.8527495116294564
33,-0.34422470794908216,-2.7755575615628914e-17,-0.025247957228817786,0.5260336287575579,2.1635860167656285,-2.6443881041023864,0.5480163421694579,0.0,0.0,-0.5167651418172358,0.8561272032838416
34,-0.34011673641626844,2.7755575615628914e-17,-0.025247957228817786,0.5383101864423868,2.2162015556283112,-2.747755175403399,0.5564323279123973,0.0,0.0,-0.5099662280553466,0.8601944235130813
35,-0.335457280970053,2.7755575615628914e-17,-0.025247957228817786,0.5489386772592155,2.269609812206533,-2.849392968652979,0.5648483136553365,0.0,0.0,-0.5018244267132562,0.8649695051005624
36,-0.33030156581219006,2.7755575615628914e-17,-0.025247957228817786,0.557644963708776,2.3239629161849815,-2.9489696197845854,0.5732642993982757,0.0,0.0,-0.4922209177506835,0.8704703143293715
37,-0.3247169511204736,0.0,-0.025247957228817786,0.5641010364603598,2.37941299724834,-3.0461532647316742,0.5816802851412151,0.0,0.0,-0.48101580035218783,0.8767119252134901
38,-0.31878487905420827,0.0,-0.025247957228817675,0.567923758871312,2.4361121850812966,-3.140612039427704,0.5900962708841543,0.0,0.0,-0.46804741890598694,0.8837033516149203
39,-0.31260312459964945,5.551115123125783e-17,-0.025247957228817786,0.568676108909649,2.4942126093685353,-3.2320140798061345,0.5985122566270935,0.0,0.0,-0.4531327172827302,0.8914430663412943
40,-0.3062883042607406,2.7755575615628914e-17,-0.025247957228817675,0.5658723132845669,2.5538663997947424,-3.320027521800423,0.6069282423700328,0.0,0.0,-0.4360694041206355,0.8999130373485396
41,-0.2999785247798985,-2.7755575615628914e-17,-0.025247957228817786,0.5589886313288677,2.615225686044605,-3.404320501344028,0.615344228112972,0.0,0.0,-0.416641032540215,0.9090710918315594
42,-0.29383594274357633,0.0,-0.025247957228817786,0.5474817831444819,2.678442597802807,-3.484561154370407,0.6237602138559113,0.0,0.0,-0.3946264376102566,0.9188416483480917
43,-0.28804884617765003,0.0,-0.025247957228817786,0.5308168430672903,2.7436692647540344,-3.5604176168130186,0.6321761995988505,0.0,0.0,-0.36981521425207603,0.9291053262723722
44,-0.28283266538258817,2.7755575615628914e-17,-0.025247957228817786,0.5085053136553557,2.8110578165829745,-3.631558024605322,0.6405921853417897,0.0,0.0,-0.3420308168335767,0.9396887358780865
45,-0.2784291047209462,2.7755575615628914e-17,-0.025247957228817675,0.4801512202895788,2.880760382974312,-3.6976505136807747,0.6490081710847291,0.0,0.0,-0.3111620362879577,0.9503568735865131
46,-0.2751024402585109,0.0,-0.025247957228817675,0.4454972387819849,2.952929093612733,-3.7583632199728356,0.6574241568276683,0.0,0.0,-0.27720160974508157,0.9608117752997907
47,-0.2731320889692179,0.0,-0.025247957228817786,0.40445248383457144,3.027716078182924,-3.8133642794149596,0.6658401425706075,0.0,0.0,-0.24028730406586168,0.9707018138979447
48,-0.2728009935205835,0.0,-0.025247957228817786,0.35706573125380675,3.10527346636957,-3.86232182794061,0.6742561283135468,0.0,0.0,-0.20073650290312484,0.9796452706986462
49,-0.2743802858679198,-1.3877787807814457e-17,-0.025247957228817786,0.3033732061588078,3.1857533878573565,-3.9049040014832412,0.682672114056486,0.0,0.0,-0.1590619270448251,0.987268607504962
50,-0.2781068247212576,6.938893903907228e-18,-0.025247957228817786,0.2431038033729668,3.269307972330971,-3.9407789359763132,0.6910880997994253,0.0,0.0,-0.116002527877241,0.9932489182103799
51,-0.2839110135812978,0.0,-0.025247957228817675,0.179629504658254,3.3560893494750976,-3.969614767353284,0.6995040855423645,0.0,0.0,-0.07393887334371815,0.9972627753048149
52,-0.2909885282539762,-3.469446951953614e-18,-0.025247957228817786,0.12072815123661476,3.4462496489744217,-3.9910796315476116,0.7079200712853038,0.0,0.0,-0.03674902955826633,0.9993245262808902
