frame_id,dx,dy,dz,angle,x,y,z,qx,qy,qz,qw
1,-0.3000369447816499,0.0,-0.02314978890616659,0.12339091260954262,-0.9037100543264104,-0.6842621261660464,0.2947208181787231,0.0,0.0,-0.0008942687378762735,0.9999996001416322
2,-0.2998782546803911,-2.168404344971009e-19,-0.023149788906166646,0.11723582307402507,-0.8036553569874896,-0.6850670668239625,0.3024374144807786,0.0,0.0,0.0031316109936963933,0.9999950964942699
3,-0.29969967915038226,-8.673617379884035e-19,-0.02314978890616659,0.1083960287973812,-0.7036371245411827,-0.6853353803766011,0.31015401078283417,0.0,0.0,0.008416028963499111,0.9999645846011175
4,-0.29953542048219056,0.0,-0.023149788906166646,0.09775144440309656,-0.6036735894337966,-0.6847987532713238,0.3178706070848897,0.0,0.0,0.014514120407251929,0.9998946646066293
5,-0.29941149011595025,0.0,-0.02314978890616659,0.08637631683264066,-0.5037829841116384,-0.6831888719554917,0.32558720338694525,0.0,0.0,0.020888546219861644,0.9997818105150846
6,-0.2993377053570405,0.0,-0.023149788906166646,0.0751704399144758,-0.40397990057373173,-0.6802909966716273,0.33330379968900076,0.0,0.0,0.027089290057279274,0.9996330178441449
7,-0.29931024588260785,0.0,-0.02314978890616659,0.0643176867038015,-0.30426436902996823,-0.6761046828428973,0.3410203959910563,0.0,0.0,0.0330243684327355,0.9994545467852047
8,-0.299323432811048,0.0,-0.023149788906166646,0.05382183375611156,-0.20463277924295575,-0.6706830596876293,0.34873699229311184,0.0,0.0,0.03869188853360257,0.9992511885215365
9,-0.29937182580849203,-3.469446951953614e-18,-0.02314978890616659,0.04368578700945054,-0.10508152097530236,-0.6640792564241512,0.3564535885951674,0.0,0.0,0.04409043825374773,0.9990275437917577
10,-0.2994502299482902,0.0,-0.023149788906166646,0.03391167448351094,-0.00560698398961618,-0.6563464022707906,0.3641701848972229,0.0,0.0,0.049219033574469884,0.9987880089057913
11,-0.2995537011891218,-6.938893903907228e-18,-0.023149788906166646,0.024500937234413295,0.09379444195149474,-0.6475376264458751,0.3718867811992785,0.0,0.0,0.05407706705240082,0.9985367648809983
12,-0.2996775506108627,0.0,-0.023149788906166646,0.015454417724732564,0.19312636708542238,-0.6377060581677326,0.379603377501334,0.0,0.0,0.05866425791860074,0.9982777693822796
13,-0.2998173475479608,0.0,-0.02314978890616659,0.006772444930599808,0.29239240164955815,-0.6269048266546908,0.38731997380338956,0.0,0.0,0.06298060419587086,0.9980147511410455
14,-0.2999689217580988,-6.938893903907228e-18,-0.02314978890616659,-0.0015450843429207772,0.39159615588129476,-0.6151870611250775,0.39503657010544513,0.0,0.0,0.06702633715225335,0.9977512065279363
15,-0.30012836475993926,-6.938893903907228e-18,-0.023149788906166646,-0.009498628332097414,0.4907412400180233,-0.6026058907972202,0.40275316640750064,0.0,0.0,0.07080187832885089,0.9974903979613571
16,-0.3002920304680547,-6.938893903907228e-18,-0.023149788906166646,-0.01708892764487599,0.5898312642971363,-0.5892144448894467,0.41046976270955615,0.0,0.0,0.07430779931009149,0.9972353538466691
17,-0.3004565352462852,6.938893903907228e-18,-0.02314978890616659,-0.02431693722165701,0.6888698389560253,-0.5750658526200849,0.4181863590116117,0.0,0.0,0.07754478434447772,0.9969888697578165
18,-0.3006187574929474,0.0,-0.02314978890616659,-0.031183763007782667,0.7878605742320823,-0.5602132432074622,0.4259029553136673,0.0,0.0,0.0805135958735355,0.9967535105930216
19,-0.30077583686295,0.0,-0.023149788906166646,-0.03769060334394245,0.8868070803626995,-0.5447097458699066,0.4336195516157228,0.0,0.0,0.08321504298563018,0.996531613457847
20,-0.3009251732231204,-6.938893903907228e-18,-0.023149788906166646,-0.0438386950184457,0.9857129675852684,-0.5286084898257459,0.4413361479177783,0.0,0.0,0.08564995277896174,0.9963252910515529
21,-0.30106442542817646,-6.938893903907228e-18,-0.023149788906166646,-0.049629263874173685,1.0845818461371808,-0.5119626042933074,0.4490527442198339,0.0,0.0,0.0878191445935901,0.9961364353555441
22,-0.30119150999588756,0.0,-0.02314978890616659,-0.05506347982139219,1.1834173262558294,-0.49482521849091926,0.45676934052188944,0.0,0.0,0.08972340705505236,0.9959667214452667
23,-0.3013045997512322,0.0,-0.023149788906166646,-0.060142416073265065,1.2822230181786054,-0.47724946163690884,0.46448593682394496,0.0,0.0,0.09136347786109494,0.9958176112688132
24,-0.30140212250079335,0.0,-0.023149788906166646,-0.06486701239191653,1.3810025321429007,-0.4592884629496042,0.4722025331260005,0.0,0.0,0.09274002623756812,0.9956903572564391
25,-0.3014827597903702,0.0,-0.0231497889061667,-0.06923804210648381,1.479759478386107,-0.44099535164733283,0.47991912942805603,0.0,0.0,0.09385363798870427,0.99558600564506
26,-0.30154544579075254,-6.938893903907228e-18,-0.02314978890616659,-0.07325608263820484,1.5784974671456171,-0.42242325694842253,0.4876357257301116,0.0,0.0,0.09470480307021166,0.9955053994205317
27,-0.3015893663488882,0.0,-0.02314978890616659,-0.07692148923766162,1.6772201086588228,-0.403625308071201,0.49535232203216717,0.0,0.0,0.09529390562008898,0.9954491807981307
28,-0.3016139582341904,0.0,-0.02314978890616659,-0.08023437160185551,1.7759310131631152,-0.38465463423399593,0.5030689183342227,0.0,0.0,0.0956212163912257,0.9954177931782525
29,-0.3016189086025089,0.0,-0.02314978890616659,-0.08319457298856335,1.8746337908958859,-0.36556436465513514,0.5107855146362782,0.0,0.0,0.09568688754109134,0.9954114825300633
30,-0.30160415469324275,0.0,-0.02314978890616659,-0.08580165137557601,1.9733320520945279,-0.3464076285529463,0.5185021109383338,0.0,0.0,0.09549094974659963,0.9954302981708425
31,-0.30156988376812727,0.0,-0.02314978890616659,-0.08805486211376141,2.0720294069964336,-0.32723755514575725,0.5262187072403893,0.0,0.0,0.09503331162608944,0.9954740929232556
32,-0.3015165332934312,6.938893903907228e-18,-0.0231497889061667,-0.0899531413824515,2.170729465838993,-0.30810727365189544,0.5339353035424448,0.0,0.0,0.09431376146475869,0.995542522647008
33,-0.30144479136042174,0.0,-0.0231497889061667,-0.09149508955535128,2.2694358388595997,-0.2890699132896887,0.5416518998445004,0.0,0.0,0.09333197125443435,0.9956350451554834
34,-0.3013555973321519,6.938893903907228e-18,-0.0231497889061667,-0.09267895329846004,2.3681521362956444,-0.2701786032774649,0.5493684961465559,0.0,0.0,0.09208750307272952,0.9957509185422979
35,-0.3012501426975702,-6.938893903907228e-18,-0.02314978890616659,-0.09350260480957986,2.4668819683845196,-0.25148647283355163,0.5570850924486115,0.0,0.0,0.09057981784003251,0.9958891989574274
36,-0.3011298721068995,0.0,-0.02314978890616659,-0.09396351601324762,2.565628945363617,-0.2330466511762767,0.564801688750667,0.0,0.0,0.08880828650484528,0.9960487378878974
37,-0.3009964845547966,-6.938893903907228e-18,-0.02314978890616648,-0.09405872465594801,2.6643966774703296,-0.21491226752396764,0.5725182850527226,0.0,0.0,0.08677220371826351,0.9962281790141635
38,-0.3008519346703028,0.0,-0.02314978890616659,-0.09378478796461957,2.7631887749420474,-0.19713645109495243,0.5802348813547781,0.0,0.0,0.08447080406628696,0.996425954730403
39,-0.30069843406461444,6.938893903907228e-18,-0.02314978890616659,-0.09313771761470206,2.8620088480161643,-0.17977233110755864,0.5879514776568336,0.0,0.0,0.08190328093358469,0.9966402824350992
40,-0.30053845267969853,0.0,-0.0231497889061667,-0.09211288684098846,2.9608605069300697,-0.1628730367801141,0.5956680739588891,0.0,0.0,0.07906880807361452,0.9968691607176029
41,-0.3003747200721795,0.0,-0.0231497889061667,-0.09070489601406331,3.059747361921159,-0.1464916973309463,0.6033846702609447,0.0,0.0,0.0759665639569775,0.9971103655867641
42,-0.3002102265584465,6.938893903907228e-18,-0.0231497889061667,-0.08890737586923753,3.1586730232268194,-0.13068144197838316,0.6111012665630002,0.0,0.0,0.07259575896170582,0.9973614469091804
43,-0.3000482241379606,0.0,-0.02314978890616659,-0.08671269600725486,3.2576411010844466,-0.11549539994075242,0.6188178628650558,0.0,0.0,0.0689556654551673,0.9976197252468674
44,-0.2998922271029348,0.0,-0.02314978890616659,-0.08411152700817581,3.3566552057314327,-0.1009867004363817,0.6265344591671114,0.0,0.0,0.06504565079648875,0.9978822893069409
45,-0.2997460122336958,0.0,-0.02314978890616659,-0.08109217134889019,3.455718947405167,-0.08720847268359877,0.6342510554691669,0.0,0.0,0.060865213260121655,0.9981459942387185
46,-0.2996136184704086,6.938893903907228e-18,-0.02314978890616659,-0.07763951923133547,3.5548359363430437,-0.07421384590073121,0.6419676517712224,0.0,0.0,0.056414020844563074,0.9984074610358985
47,-0.29949934594382,-3.469446951953614e-18,-0.02314978890616659,-0.07373337571594084,3.6540097827824525,-0.06205594930610725,0.649684248073278,0.0,0.0,0.051691952884659914,0.998663077322362
48,-0.2994077542401629,0.0,-0.02314978890616659,-0.06934569190729939,3.7532440969607874,-0.05078791211805378,0.6574008443753335,0.0,0.0,0.0466991443307668,0.9989089998186893
49,-0.29934365976915667,0.0,-0.0231497889061667,-0.06443579303227126,3.852542489115439,-0.04046286355489925,0.665117440677389,0.0,0.0,0.04143603249303286,0.9991411588015161
50,-0.299312132099071,0.0,-0.0231497889061667,-0.05894172824687117,3.9519085694837996,-0.0311339328349709,0.6728340369794445,0.0,0.0,0.03590340597410747,0.9993552648780405
51,-0.29931848911979436,0.0,-0.0231497889061667,-0.05276355793588574,4.051345948303262,-0.02285424917659684,0.6805506332815001,0.0,0.0,0.03010245542908555,0.9995468184017895
52,-0.29936829089414946,0.0,-0.02314978890616659,-0.04572830401227121,4.150858235811215,-0.015676941798104416,0.6882672295835557,0.0,0.0,0.024034825698156678,0.9997111218515373
53,-0.2994671171182396,0.0,-0.02314978890616659,-0.03754481861911591,4.250449042245055,-0.009655139917821964,0.6959838258856113,0.0,0.0,0.017713729408156475,0.9998430995863574
54,-0.29961345451346044,0.0,-0.02314978890616648,-0.02851251211613231,4.350121977842171,-0.004841972754076274,0.7037004221876668,0.0,0.0,0.011409550873254286,0.9999349089560133
55,-0.2997889605893348,0.0,-0.02314978890616659,-0.01967454561481085,4.449880652839955,-0.001290569525195906,0.7114170184897223,0.0,0.0,0.00564964174310801,0.9999840406467367
