frame_id,dx,dy,dz,angle,x,y,z,qx,qy,qz,qw
1,-0.3012586585990007,4.336808689942018e-19,-0.02661290322580645,0.7606486325045282,-0.4390440894704331,0.13848923066767868,0.2088709677419355,0.0,0.0,-0.004704822153147731,0.9999889322630062
2,-0.29580780528601697,0.0,-0.026612903225806478,0.7283426489508091,-0.337176106970827,0.1342371724964486,0.21774193548387097,0.0,0.0,0.016772486592493172,0.9998593319530026
3,-0.28952204313750557,0.0,-0.02661290322580645,0.6793947749096384,-0.23655344613762497,0.13281981977270524,0.22661290322580646,0.0,0.0,0.04607020739690494,0.9989382042901384
4,-0.2835642882816154,-6.938893903907228e-18,-0.026612903225806422,0.6175193297176547,-0.13779876780402903,0.13565452522019197,0.23548387096774195,0.0,0.0,0.08127204583862109,0.9966919557040707
5,-0.2789062147085971,0.0,-0.02661290322580645,0.5486363535404535,-0.04153473280324116,0.14415864156265212,0.24435483870967745,0.0,0.0,0.1193627388244791,0.9928507121316473
6,-0.27598915594613793,0.0,-0.02661290322580645,0.4787532384241126,0.051739596766793725,0.15946817573375147,0.2532258064516129,0.0,0.0,0.15729376330084593,0.9875518578923628
7,-0.27473984178191996,0.0,-0.02661290322580645,0.40997428985429024,0.14201955374915795,0.18159375150684498,0.2620967741935484,0.0,0.0,0.19398439513912444,0.9810046148935835
8,-0.27498208045869943,0.0,-0.02661290322580645,0.34321401300143245,0.22942406972219118,0.21026464686521013,0.2709677419354839,0.0,0.0,0.2289650297854296,0.9734346486207265
9,-0.27652268625354504,1.3877787807814457e-17,-0.02661290322580645,0.27919759636421604,0.3140720762642329,0.2452101397921243,0.27983870967741936,0.0,0.0,0.26187975284638987,0.9651005103351225
10,-0.27916114800908476,0.0,-0.02661290322580645,0.21844100346515094,0.3960825049536227,0.2861595082708649,0.2887096774193548,0.0,0.0,0.2924940337583788,0.9562673476678749
11,-0.2826983008120523,-2.7755575615628914e-17,-0.02661290322580645,0.1612572200583412,0.47557428736870005,0.33284203028470943,0.29758064516129035,0.0,0.0,0.3206871185655686,0.9471851835761119
12,-0.286943197787912,2.7755575615628914e-17,-0.02661290322580645,0.10778110982214739,0.5526663550878045,0.38498698381693514,0.3064516129032258,0.0,0.0,0.34643430441020917,0.9380742362562862
13,-0.29171789634861545,0.0,-0.02661290322580645,0.058004052063500566,0.6274776396892754,0.4423236468508195,0.3153225806451613,0.0,0.0,0.3697846827553531,0.9291174782553189
14,-0.2968602764384645,2.7755575615628914e-17,-0.02661290322580645,0.01181081895612135,0.7001270727514526,0.50458129736964,0.3241935483870968,0.0,0.0,0.39083881485629235,0.9204591358673827
15,-0.3022252402599135,2.7755575615628914e-17,-0.02661290322580645,-0.030986409069895138,0.7707335858526753,0.5714892133566738,0.33306451612903226,0.0,0.0,0.40972911256827643,0.9122072430725447
16,-0.3076847217176531,-2.7755575615628914e-17,-0.02661290322580645,-0.07061954000333215,0.8394161105712831,0.6427766727951987,0.3419354838709677,0.0,0.0,0.4266041493645373,0.9044384444200498
17,-0.3131269106422895,2.7755575615628914e-17,-0.02661290322580645,-0.10734236262625052,0.9062935784856158,0.7181729536684918,0.35080645161290325,0.0,0.0,0.4416170371420639,0.897203651634268
18,-0.31845502347004073,-2.7755575615628914e-17,-0.02661290322580645,-0.14141426671062018,0.9714849211740123,0.7974073339598307,0.3596774193548387,0.0,0.0,0.4549173967978407,0.8905336389439065
19,-0.3235858656426176,2.7755575615628914e-17,-0.02661290322580645,-0.1730889657516469,1.035109070214813,0.8802090916524925,0.3685483870967742,0.0,0.0,0.46664620875767504,0.8844440716360127
20,-0.32844835229762925,0.0,-0.02661290322580645,-0.20260713737014935,1.0972849571863568,0.9663075047297547,0.3774193548387097,0.0,0.0,0.47693281214237304,0.8789397548762758
21,-0.3329820912119823,2.7755575615628914e-17,-0.02661290322580645,-0.2301919586009299,1.1581315136669832,1.055431851174895,0.38629032258064516,0.0,0.0,0.48589341443910494,0.8740180717838208
22,-0.33713608648131227,2.7755575615628914e-17,-0.02661290322580645,-0.25604667279859283,1.2177676712350318,1.1473114089711909,0.3951612903225806,0.0,0.0,0.493630604035567,0.8696716775654368
23,-0.34086759069438466,-2.7755575615628914e-17,-0.02661290322580645,-0.28035350770242307,1.2763123614688427,1.2416754561019194,0.40403225806451615,0.0,0.0,0.5002334861201577,0.8658905585373211
24,-0.34414111398845804,-5.551115123125783e-17,-0.026612903225806506,-0.30327343282474184,1.3338845159467547,1.338253270550358,0.4129032258064516,0.0,0.0,0.5057781710649306,0.8626635738653938
25,-0.3469275871057105,2.7755575615628914e-17,-0.02661290322580645,-0.32494638405017995,1.3906030662471074,1.4367741302997838,0.4217741935483871,0.0,0.0,0.5103284290379554,0.8599795895924813
26,-0.3492036697816312,2.7755575615628914e-17,-0.02661290322580645,-0.34549169179128036,1.4465869439482404,1.536967313333475,0.4306451612903226,0.0,0.0,0.5139363869231279,0.8578282987850196
27,-0.35095119353839255,2.7755575615628914e-17,-0.026612903225806395,-0.36500852959035257,1.5019550806284938,1.6385620976347084,0.4395161290322581,0.0,0.0,0.5166431876370152,0.8562008039404447
28,-0.3521567278785652,-2.7755575615628914e-17,-0.026612903225806506,-0.3835762580273403,1.5568264078662062,1.7412877611867619,0.4483870967741935,0.0,0.0,0.5184795619404713,0.8550900209042419
29,-0.35281126008436503,5.551115123125783e-17,-0.02661290322580645,-0.4012545796681526,1.6113198572397178,1.8448735819729118,0.45725806451612905,0.0,0.0,0.5194662826681414,0.8544909485599849
30,-0.352909980760858,2.7755575615628914e-17,-0.02661290322580645,-0.4180834494258022,1.6655543603273677,1.9490488379764368,0.4661290322580645,0.0,0.0,0.5196144840235026,0.8544008356696458
31,-0.35245216957793857,0.0,-0.026612903225806506,-0.4340827051583789,1.7196488487074952,2.053542807180614,0.47500000000000003,0.0,0.0,0.5189258365906547,0.8548192651775515
32,-0.35144117816954507,0.0,-0.02661290322580645,-0.4492513989155037,1.773722253958441,2.1580847675687203,0.4838709677419355,0.0,0.0,0.5173925738198627,0.8557481665513855
33,-0.34988450972981255,0.0,-0.026612903225806395,-0.4635668227523998,1.8278935076585436,2.262403997124034,0.49274193548387096,0.0,0.0,0.5149973693956997,0.8571917577272364
34,-0.3477939974374312,-2.7755575615628914e-17,-0.02661290322580645,-0.4769832369250505,1.882281541386143,2.366229773829831,0.5016129032258065,0.0,0.0,0.511713068336429,0.859156409330523
35,-0.34518608638016424,2.7755575615628914e-17,-0.02661290322580645,-0.4894303249304206,1.9370052867195775,2.4692913756693895,0.510483870967742,0.0,0.0,0.5075022791124606,0.8616504144347974
36,-0.3420822260511554,0.0,-0.02661290322580645,-0.5008114217437137,1.9921836752371882,2.571318080625988,0.5193548387096774,0.0,0.0,0.5023168408627559,0.8646836365895106
37,-0.33850938258775937,-2.7755575615628914e-17,-0.02661290322580645,-0.5110015915074436,2.047935638517314,2.672039166682903,0.528225806451613,0.0,0.0,0.4960971905988524,0.8682669966547881
38,-0.3345006814409604,2.7755575615628914e-17,-0.02661290322580645,-0.519845672062385,2.1043801081382947,2.7711839118234103,0.5370967741935484,0.0,0.0,0.4887716722800432,0.8724117447493299
39,-0.3300961916248746,2.7755575615628914e-17,-0.02661290322580645,-0.5271564597733918,2.1616360156784693,2.86848159403079,0.5459677419354838,0.0,0.0,0.4802558556408087,0.8771284473340918
40,-0.3253438613389077,-2.7755575615628914e-17,-0.02661290322580645,-0.5327132830756636,2.2198222927161773,2.9636614912883186,0.5548387096774194,0.0,0.0,0.47045197122008814,0.8824256018357204
41,-0.32030061040707336,-2.7755575615628914e-17,-0.02661290322580645,-0.5362613106341139,2.2790578708297593,3.056452881579273,0.5637096774193548,0.0,0.0,0.4592486233780999,0.8883077743244849
42,-0.31503357591958975,0.0,-0.02661290322580645,-0.5375120615176796,2.3394616815975535,3.146585042886931,0.5725806451612903,0.0,0.0,0.44652101944034983,0.8947731439856422
43,-0.30962149130725225,0.0,-0.02661290322580645,-0.5361457264750293,2.4011526565978993,3.2337872531945697,0.5814516129032259,0.0,0.0,0.43213205330202825,0.9018103395442819
44,-0.30415615277669555,0.0,-0.02661290322580645,-0.5318160557101042,2.464249727409138,3.317788790485467,0.5903225806451613,0.0,0.0,0.41593470417899636,0.9093944808824885
45,-0.2987438871481296,2.7755575615628914e-17,-0.02661290322580645,-0.5241586816743808,2.528871825609608,3.398318932742899,0.5991935483870967,0.0,0.0,0.39777634398819917,0.9174824140894374
46,-0.2935068787262867,0.0,-0.02661290322580645,-0.5128037490931516,2.595137882777648,3.475106957950146,0.6080645161290323,0.0,0.0,0.37750565967435673,0.9260072769227188
47,-0.28858413936625144,0.0,-0.02661290322580645,-0.49739348265138755,2.663166830491599,3.5478821440904813,0.6169354838709677,0.0,0.0,0.35498292945454535,0.9348727826800122
48,-0.28413182059703623,0.0,-0.02661290322580656,-0.4776046161504637,2.7330776003298007,3.616373769147186,0.6258064516129032,0.0,0.0,0.33009424504155704,0.9439479802353753
49,-0.28032248530550796,2.7755575615628914e-17,-0.02661290322580645,-0.4531741138544685,2.8049891238705897,3.6803111111035345,0.6346774193548388,0.0,0.0,0.3027698103502457,0.9530637134738035
50,-0.2773429101836846,-1.3877787807814457e-17,-0.02661290322580645,-0.4239238941003558,2.879020332692307,3.739423447942807,0.6435483870967742,0.0,0.0,0.2730055363367002,0.9620124620448067
51,-0.275390026355209,0.0,-0.02661290322580645,-0.38977568047806466,2.9552901583732956,3.7934400576482803,0.6524193548387097,0.0,0.0,0.24088574839357016,0.9705534793203667
52,-0.27466477856008287,1.3877787807814457e-17,-0.02661290322580645,-0.35073940673959336,3.0339175324918912,3.8420902182032313,0.6612903225806452,0.0,0.0,0.20660312216717133,0.9784248309966264
53,-0.27536402756372924,-1.3877787807814457e-17,-0.02661290322580645,-0.30684413177620895,3.115021386626435,3.8851032075909346,0.6701612903225806,0.0,0.0,0.1704705351823997,0.9853627741266798
54,-0.27767111003362926,0.0,-0.02661290322580634,-0.25794615139386295,3.1987206523552634,3.9222083037946724,0.6790322580645162,0.0,0.0,0.13291927587069133,0.9911268668046543
55,-0.2817277848206789,-6.938893903907228e-18,-0.02661290322580645,-0.20370135937107092,3.2851342612567205,3.9531347847977187,0.6879032258064517,0.0,0.0,0.09462219069759,0.995513255073778
56,-0.2873131061751014,0.0,-0.02661290322580645,-0.14810441568986762,3.3743811449091434,3.9776119285833538,0.6967741935483871,0.0,0.0,0.0580164499694776,0.9983156272106227
57,-0.2936184046318487,1.734723475976807e-18,-0.02661290322580645,-0.09767257356249684,3.46658023489087,3.9953690131348534,0.7056451612903225,0.0,0.0,0.026323107571445594,0.9996534869682505
