frame_id,dx,dy,dz,angle,x,y,z,qx,qy,qz,qw
1,-0.30065722410539136,0.0,0.03612202446772339,0.588924588863688,-1.8782325329490195,0.3290766541033702,1.5928472375802156,0.0,0.0,-0.0032944060425450813,0.9999945734296896
2,-0.29780327842304644,0.0,0.03612202446772339,0.5664778047360695,-1.7772564859897673,0.32610520930072895,1.580806562757641,0.0,0.0,0.011641646665862962,0.9999322337353203
3,-0.2944711096268994,0.0,0.03612202446772339,0.5333415927484135,-1.6769311370033497,0.32511472769984845,1.5687658879350665,0.0,0.0,0.0316443759749842,0.9994991913299149
4,-0.29122128670951736,0.0,0.03612202446772361,0.492354810300649,-1.5775818349761845,0.3270956909016094,1.5567252131124922,0.0,0.0,0.05526962293895464,0.9984714661822769
5,-0.28852620872077056,0.0,0.03612202446772361,0.4474330518792612,-1.4795339288946892,0.33303858050689206,1.5446845382899177,0.0,0.0,0.08054403119142244,0.9967510516871478
6,-0.2866165332069024,0.0,0.03612202446772361,0.402186580969925,-1.3830497744034134,0.34374210328800137,1.5326438634673432,0.0,0.0,0.10565037660459149,0.9944033376469067
7,-0.28547263030282605,0.0,0.03612202446772361,0.3576103732260611,-1.2881397537794392,0.35923786670293956,1.5206031886447686,0.0,0.0,0.13008273845935625,0.9915031422819167
8,-0.2850285580316002,1.3877787807814457e-17,0.03612202446772361,0.3139842306394829,-1.19475125595798,0.3793657033811332,1.508562513822194,0.0,0.0,0.1536956523179297,0.9881182350602412
9,-0.2852151639292375,-1.3877787807814457e-17,0.03612202446772361,0.2715450047333331,-1.1028316698742504,0.40396544595200895,1.4965218389996195,0.0,0.0,0.17636873111003415,0.9843241695125832
10,-0.28596166498567394,-1.3877787807814457e-17,0.03612202446772339,0.23048362823354285,-1.0123283844634638,0.4328769270449933,1.484481164177045,0.0,0.0,0.19800803543281348,0.9802003968087535
11,-0.287197118088403,0.0,0.03612202446772339,0.19094499873618181,-0.923188788660835,0.4659399792895132,1.4724404893544705,0.0,0.0,0.21854574815536626,0.9758267038584316
12,-0.288851709902497,0.0,0.03612202446772339,0.15303022431712265,-0.8353602714015774,0.502994435314995,1.460399814531896,0.0,0.0,0.2379384844699824,0.9712802260975604
13,-0.2908578240594442,-2.7755575615628914e-17,0.03612202446772361,0.11680060541425752,-0.7487902216209057,0.5438801277508654,1.4483591397093216,0.0,0.0,0.25616464114640397,0.9666331654905774
14,-0.29315087047139554,-2.7755575615628914e-17,0.03612202446772361,0.0822827064508227,-0.6634260282540335,0.5884368892265509,1.436318464886747,0.0,0.0,0.273221188630862,0.9619512368530636
15,-0.29566988333386535,-2.7755575615628914e-17,0.03612202446772361,0.049473934984491375,-0.5792150802361753,0.6365045523714783,1.4242777900641725,0.0,0.0,0.2891202580396058,0.9572927850929995
16,-0.29835790957872377,0.0,0.03612202446772361,0.018348159672381348,-0.4961047665025446,0.6879229498150742,1.412237115241598,0.0,0.0,0.30388579624292517,0.9527084668679099
17,-0.3011622183247882,0.0,0.03612202446772339,-0.011138971255657104,-0.414042475988356,0.742531914186765,1.4001964404190235,0.0,0.0,0.3175504768232984,0.9482413694146105
18,-0.3040343652980746,0.0,0.03612202446772339,-0.03904522538993738,-0.33297559762882334,0.8001712781159777,1.388155765596449,0.0,0.0,0.33015297689464396,0.943927439927246
19,-0.30693014569219046,0.0,0.03612202446772339,-0.06543760576339208,-0.25285152035916053,0.8606808742321386,1.3761150907738744,0.0,0.0,0.34173566704203867,0.9397961129262734
20,-0.3098094659366023,0.0,0.03612202446772361,-0.09038882614529586,-0.1736176331145822,0.9239005351646744,1.3640744159513,0.0,0.0,0.35234271612648127,0.9358710436767524
21,-0.31263616053169296,-2.7755575615628914e-17,0.03612202446772361,-0.11397441912871265,-0.09522132483030166,0.9896700935430119,1.3520337411287255,0.0,0.0,0.3620185831415759,0.9321708778223904
22,-0.31537777537796263,-2.7755575615628914e-17,0.03612202446772361,-0.13627042081972363,-0.017609984441533354,1.0578293819965774,1.339993066306151,0.0,0.0,0.3708068517662734,0.9287100078513125
23,-0.3180053344522076,-2.7755575615628914e-17,0.03612202446772361,-0.15735155885728325,0.059268999116508646,1.128218233154798,1.3279523914835765,0.0,0.0,0.37874935632876855,0.9254992842139552
24,-0.32049310259626046,-2.7755575615628914e-17,0.03612202446772361,-0.1772898649348903,0.13546823690861007,1.2006764796470997,1.315911716661002,0.0,0.0,0.38588554744342607,0.9225466623831488
25,-0.3228183537312224,0.0,0.03612202446772361,-0.19615363493294513,0.21104033999955688,1.2750439541029093,1.3038710418384274,0.0,0.0,0.39225204905859773,0.919857777055416
26,-0.32496115101924594,0.0,0.03612202446772361,-0.21400666608444974,0.28603791945413537,1.3511604891516538,1.2918303670158529,0.0,0.0,0.39788236417572403,0.9174364415467354
27,-0.3269041433221983,2.7755575615628914e-17,0.03612202446772339,-0.23090770905121638,0.3605135863371316,1.4288659174227596,1.2797896921932783,0.0,0.0,0.4028066927855715,0.9152850748521743
28,-0.3286323806734698,0.0,0.03612202446772339,-0.24691008189532593,0.4345199517133308,1.5080000715456532,1.2677490173707038,0.0,0.0,0.40705183181144433,0.9134050614152232
29,-0.33013315029542506,-2.7755575615628914e-17,0.03612202446772339,-0.2620614017798931,0.5081096266475192,1.5884027841497614,1.2557083425481292,0.0,0.0,0.41064113259930035,0.9117970499061531
30,-0.3313958338723674,-2.7755575615628914e-17,0.03612202446772361,-0.27640339832797567,0.581335222204483,1.6699138878645106,1.243667667725555,0.0,0.0,0.41359449653956215,0.9104611976532476
31,-0.3324117862482678,0.0,0.03612202446772361,-0.28997177969331156,0.6542493494490077,1.7523732153193279,1.2316269929029804,0.0,0.0,0.4159283936880476,0.9093973671196109
32,-0.33317423539295665,-2.7755575615628914e-17,0.03612202446772339,-0.3027961285159164,0.7269046194458796,1.8356205991436392,1.2195863180804059,0.0,0.0,0.4176558928087583,0.9086052801971376
33,-0.3336782033150878,0.0,0.03612202446772339,-0.3148998101207965,0.7993536432598849,1.9194958719668715,1.2075456432578313,0.0,0.0,0.4187866941735013,0.9080846352533614
34,-0.33392044755139916,2.7755575615628914e-17,0.03612202446772339,-0.32629987969969965,0.8716490319558086,2.0038388664184517,1.1955049684352568,0.0,0.0,0.4193271588295136,0.9078351909173646
35,-0.3338994228951858,0.0,0.03612202446772361,-0.33700697895257714,0.9438433965984369,2.088489415127806,1.1834642936126825,0.0,0.0,0.41928033000040493,0.907856819589274
36,-0.33361526311550643,2.7755575615628914e-17,0.03612202446772361,-0.3470252159266932,1.0159893482525566,2.173287350724361,1.171423618790108,0.0,0.0,0.4186459439309886,0.9081495326377322
37,-0.3330697825408196,0.0,0.03612202446772361,-0.35635202474737193,1.0881394979829526,2.2580725058375433,1.1593829439675334,0.0,0.0,0.41742042893197756,0.9087134782263571
38,-0.3322664975181665,0.0,0.03612202446772361,-0.36497800475307113,1.160346456854412,2.3426847130967805,1.1473422691449588,0.0,0.0,0.4155968927312941,0.9095489116875977
39,-0.3312106678951919,2.7755575615628914e-17,0.03612202446772361,-0.3728867413922938,1.232662835931719,2.426963805131498,1.1353015943223843,0.0,0.0,0.4131650995976178,0.9106561373397154
40,-0.3299093587903932,0.0,0.03612202446772361,-0.38005461427101833,1.3051412462796605,2.5107496145711226,1.1232609194998098,0.0,0.0,0.4101114401720225,0.9120354196192325
41,-0.32837152299830263,0.0,0.03612202446772361,-0.3864506011115648,1.3778342989630237,2.5938819740450825,1.1112202446772352,0.0,0.0,0.4064188986306052,0.91368686038264
42,-0.3266081043986485,0.0,0.03612202446772361,-0.39203609024482944,1.4507946050465919,2.6762007161828008,1.0991795698546607,0.0,0.0,0.4020670238149205,0.9156102382349228
43,-0.3246321626735671,0.0,0.03612202446772339,-0.39676471873827635,1.5240747755951525,2.7575456736137074,1.0871388950320862,0.0,0.0,0.39703191342109867,0.9178048048061097
44,-0.32245901944927335,-2.7755575615628914e-17,0.03612202446772339,-0.40058225846209683,1.5977274216734925,2.837756678967228,1.0750982202095116,0.0,0.0,0.391286223346655,0.9202690320874172
45,-0.32010642562266534,-2.7755575615628914e-17,0.03612202446772339,-0.4034265783547517,1.6718051543463952,2.9166735648727884,1.063057545386937,0.0,0.0,0.38479921796055533,0.9230003043644921
46,-0.3175947490524941,0.0,0.03612202446772361,-0.40522771780158906,1.7463605846786487,2.9941361639598174,1.0510168705643628,0.0,0.0,0.377536881465854,0.9259945481119409
47,-0.31494718092018176,0.0,0.03612202446772361,-0.40590811314370207,1.821446323735038,3.0699843088577374,1.0389761957417882,0.0,0.0,0.3694621156886104,0.9292457936794204
48,-0.31218995781581926,-2.7755575615628914e-17,0.0361220244677235,-0.40538302635997686,1.89711498258035,3.1440578321959802,1.0269355209192137,0.0,0.0,0.3605350554748772,0.9327456640337318
49,-0.30935259489178885,2.7755575615628914e-17,0.0361220244677235,-0.40356123094149093,1.9734191722793692,3.2161965666039687,1.0148948460966392,0.0,0.0,0.35071353916633136,0.9364827886541355
50,-0.3064681231596804,0.0,0.0361220244677235,-0.4003460132584369,2.050411503896881,3.2862403447111315,1.0028541712740646,0.0,0.0,0.3399537778534318,0.940442145441802
51,-0.30357332111130525,0.0,0.0361220244677235,-0.39563654567424505,2.128144588497675,3.354028999146894,0.9908134964514902,0.0,0.0,0.3282112724014145,0.9446043408055271
52,-0.3007089272864417,0.0,0.0361220244677235,-0.3893296762258752,2.206671037146533,3.419402362540683,0.9787728216289157,0.0,0.0,0.315442030236383,0.9489448485345968
53,-0.2979198162310208,0.0,0.0361220244677235,-0.3813221527526385,2.286043460908243,3.4822002675219266,0.9667321468063411,0.0,0.0,0.3016041325800985,0.9534332421363366
54,-0.29525511566216917,-2.7755575615628914e-17,0.03612202446772361,-0.37151324782703976,2.3663144708475903,3.542262546720049,0.9546914719837667,0.0,0.0,0.2866596945816004,0.958032473093884
55,-0.29276823794608225,-2.7755575615628914e-17,0.03612202446772361,-0.35980766110108886,2.447536678029361,3.599429032764478,0.9426507971611922,0.0,0.0,0.2705772424012277,0.9626982683554319
56,-0.29051679482681464,0.0,0.0361220244677235,-0.34611842661158143,2.5297626935183413,3.653539558284641,0.9306101223386176,0.0,0.0,0.2533344993693492,0.9673787424940044
57,-0.28856236165280136,0.0,0.0361220244677235,-0.33036930913541485,2.6130451283793166,3.704433955909964,0.9185694475160431,0.0,0.0,0.23492152509890804,0.9720143399380501
58,-0.286970057373596,0.0,0.0361220244677235,-0.3124957717358478,2.697436593677075,3.751952058269873,0.9065287726934685,0.0,0.0,0.2153440860395273,0.9765382350977357
59,-0.2858079107678401,-1.3877787807814457e-17,0.0361220244677235,-0.29244290551306706,2.7829897004763975,3.795933697993795,0.8944880978708941,0.0,0.0,0.19462705628638297,0.9808773159581666
60,-0.28514599311858163,0.0,0.0361220244677235,-0.27015743786269225,2.869757059842075,3.836218707711157,0.8824474230483196,0.0,0.0,0.1728175619577051,0.9849538518524585
61,-0.2850553138189492,-1.3877787807814457e-17,0.0361220244677235,-0.2455683533775661,2.9577912828388917,3.8726469200513867,0.870406748225745,0.0,0.0,0.1499875064187532,0.9886878920661891
62,-0.2856064981030256,0.0,0.03612202446772361,-0.21854483544940423,3.0471449805316317,3.905058167643908,0.8583660734031706,0.0,0.0,0.12623506861150924,0.9920003565788913
63,-0.2868682936237536,0.0,0.03612202446772361,-0.18880546315278732,3.137870763985085,3.9332922831181483,0.8463253985805961,0.0,0.0,0.10168477701221891,0.9948166696049958
64,-0.2889058472839103,0.0,0.0361220244677235,-0.15571428555596195,3.2300212442640337,3.957189099103534,0.8342847237580215,0.0,0.0,0.07648724396846458,0.997070559945538
65,-0.29171258607905337,3.469446951953614e-18,0.0361220244677235,-0.1195426307999837,3.323649032433264,3.9765884482294958,0.822244048935447,0.0,0.0,0.05133491987212144,0.9986814937715242
66,-0.295012201294175,0.0,0.0361220244677235,-0.08401998917386709,3.4188067395575654,3.9913301631254567,0.8102033741128725,0.0,0.0,0.02816121016783307,0.9996033944729695
