frame_id,dx,dy,dz,angle,x,y,z,qx,qy,qz,qw
1,-0.30136093177143686,4.336808689942018e-19,-0.024999999999999994,-0.8286715421295421,-0.44364287638620287,0.4308152549660875,0.20833333333333334,0.0,0.0,0.0046579831766374105,0.9999891515375186
2,-0.29544595260607365,0.0,-0.024999999999999994,-0.7968256619869566,-0.34162109443921707,0.4350264117318771,0.21666666666666667,0.0,0.0,-0.01663145427276514,0.999861687799254
3,-0.2885373757438634,3.469446951953614e-18,-0.024999999999999994,-0.7483070752487216,-0.2409471671235551,0.436430130653807,0.225,0.0,0.0,-0.04578811399370656,0.9989511742907655
4,-0.2818444760955864,6.938893903907228e-18,-0.025000000000000022,-0.6865691932466111,-0.142295021754879,0.43362269280994725,0.23333333333333334,0.0,0.0,-0.08102867097534665,0.9967117710150558
5,-0.27641129076441623,0.0,-0.024999999999999994,-0.617300874217907,-0.04633858564885052,0.42520037927836807,0.24166666666666667,0.0,0.0,-0.1194516565750154,0.9928400182010617
6,-0.27275387871566115,0.0,-0.025000000000000022,-0.5464182283337861,0.046380341751924216,0.4100346794440482,0.25,0.0,0.0,-0.15804907624987677,0.9874312581119562
7,-0.2708357040991778,0.0,-0.024999999999999967,-0.47606778546689793,0.1358484724970624,0.3880979159196013,0.25833333333333336,0.0,0.0,-0.1957117705929261,0.9806614618977243
8,-0.27050300729793286,0.0,-0.025000000000000022,-0.4072581416496616,0.22218464650923725,0.35963761962454976,0.26666666666666666,0.0,0.0,-0.23191520750915448,0.9727360055667652
9,-0.27157912143115437,-1.3877787807814457e-17,-0.025000000000000022,-0.34083383151066926,0.305507703711122,0.3249013214784159,0.275,0.0,0.0,-0.26623711325722715,0.963907567936085
10,-0.2738739170734774,0.0,-0.025000000000000022,-0.2774375907803084,0.38593648402538977,0.28413655240072194,0.2833333333333333,0.0,0.0,-0.29837543105400677,0.9544485853849518
11,-0.2771930286729436,0.0,-0.024999999999999967,-0.21750147427021216,0.4635898273747139,0.2375908433109902,0.2916666666666667,0.0,0.0,-0.3281488663588599,0.9446260220359141
12,-0.2813457605769853,2.7755575615628914e-17,-0.024999999999999967,-0.1612616572316592,0.5385865736817673,0.1855117251287431,0.30000000000000004,0.0,0.0,-0.35548402649904626,0.9346823561531614
13,-0.28615107727694633,0.0,-0.025000000000000022,-0.10878840250964883,0.611045562869223,0.128146728773503,0.30833333333333335,0.0,0.0,-0.38039483391797096,0.9248241834686847
14,-0.29144156115355313,0.0,-0.025000000000000022,-0.06002257587523807,0.6810856348597548,0.06574338516479203,0.31666666666666665,0.0,0.0,-0.40295952176379224,0.9152178013019064
15,-0.2970655554683695,0.0,-0.024999999999999967,-0.01481202528091008,0.7488256295760352,-0.0014507747778671892,0.325,0.0,0.0,-0.42329901835533074,0.905990033642431
16,-0.3028878769308656,2.7755575615628914e-17,-0.024999999999999967,0.027056281970143425,0.8143843869407378,-0.07318822013495269,0.33333333333333337,0.0,0.0,-0.4415588047992021,0.8972323121155971
17,-0.3087895157517301,0.0,-0.025000000000000022,0.06583019146734959,0.8778807468765356,-0.14922141998694194,0.3416666666666667,0.0,0.0,-0.45789493859176966,0.8890063133701804
18,-0.3146666949647403,0.0,-0.025000000000000022,0.1017726011411314,0.9394335493061017,-0.2293028434143126,0.35,0.0,0.0,-0.4724640503763861,0.8813499424757113
19,-0.3204295811471244,0.0,-0.024999999999999967,0.13514734853951615,0.9991616341521093,-0.3131849594975425,0.35833333333333334,0.0,0.0,-0.48541668476687017,0.8742829302633908
20,-0.3260008555808622,0.0,-0.024999999999999967,0.16620971147792518,1.0571838413372314,-0.40062023731710905,0.3666666666666667,0.0,0.0,-0.4968932287597547,0.8678116841877079
21,-0.33131428350907355,-2.7755575615628914e-17,-0.025000000000000022,0.19520043687876643,1.1136190107841417,-0.49136114595349023,0.375,0.0,0.0,-0.5070217166518521,0.8619332798096434
22,-0.33631336439450665,-2.7755575615628914e-17,-0.025000000000000022,0.22234232800870102,1.1685859824155131,-0.5851601544871636,0.3833333333333333,0.0,0.0,-0.5159169203903654,0.8566386234900463
23,-0.34095010738291365,-2.7755575615628914e-17,-0.025000000000000022,0.247838598057605,1.2222035961540187,-0.6817697319986069,0.39166666666666666,0.0,0.0,-0.5236802704551391,0.8519148867909472
24,-0.34518395062160234,5.551115123125783e-17,-0.025000000000000022,0.2718723800647962,1.2745906919223315,-0.7809423475682975,0.4,0.0,0.0,-0.530400275831173,0.8477473370044967
25,-0.3489808273341152,2.7755575615628914e-17,-0.025000000000000022,0.2946069426355675,1.325866109643125,-0.8824304702767131,0.4083333333333333,0.0,0.0,-0.5361532117412607,0.8441206865961353
26,-0.3523123726414136,2.7755575615628914e-17,-0.024999999999999967,0.31618628897671897,1.3761486892390722,-0.9859865692043319,0.4166666666666667,0.0,0.0,-0.5410039195637346,0.8410200705195305
27,-0.35515526073633735,0.0,-0.024999999999999967,0.3367359140804205,1.4255572706328465,-1.0913631134316313,0.42500000000000004,0.0,0.0,-0.5450066179478299,0.838431742238489
28,-0.35749066049343003,-2.7755575615628914e-17,-0.024999999999999967,0.35636356587622153,1.4742106937471207,-1.198312572039089,0.43333333333333335,0.0,0.0,-0.5482056619776094,0.8363435610893952
29,-0.35930379779251403,2.7755575615628914e-17,-0.025000000000000022,0.37515990635125795,1.5222277985045682,-1.3065874141071823,0.44166666666666665,0.0,0.0,-0.5506362125674312,0.8347453272761667
30,-0.360583614010656,2.7755575615628914e-17,-0.025000000000000022,0.3931990031857996,1.5697274248278612,-1.4159401087163888,0.45,0.0,0.0,-0.5523247946333194,0.83362900695289
31,-0.3613225118321815,-5.551115123125783e-17,-0.025000000000000022,0.41053860572723455,1.6168284126396746,-1.5261231249471876,0.4583333333333333,0.0,0.0,-0.5532897327100769,0.8329888784837476
32,-0.3615161814684417,0.0,-0.025000000000000022,0.4272201746067894,1.6636496018626805,-1.6368889318800548,0.4666666666666667,0.0,0.0,-0.5535414585984707,0.8328216217250111
33,-0.3611635024192101,-2.7755575615628914e-17,-0.024999999999999967,0.4432686446993508,1.7103098324195525,-1.747989998595469,0.47500000000000003,0.0,0.0,-0.5530826887981084,0.8331263645761396
34,-0.36026651797479575,0.0,-0.024999999999999967,0.4586919085589385,1.7569279442329635,-1.859178794173907,0.48333333333333334,0.0,0.0,-0.5519084709749178,0.8339046945941294
35,-0.3588304817263296,2.7755575615628914e-17,-0.02499999999999991,0.47348001365034476,1.803622777225586,-1.9702077876958466,0.4916666666666667,0.0,0.0,-0.5500060993289595,0.8351606376625653
36,-0.3568639774187256,5.551115123125783e-17,-0.025000000000000022,0.48760407313105425,1.8505131713200949,-2.080829448241767,0.5,0.0,0.0,-0.5473548991262499,0.8369006000729674
37,-0.3543791155498321,2.7755575615628914e-17,-0.025000000000000022,0.5010148980312362,1.8977179664391617,-2.1907962448921436,0.5083333333333333,0.0,0.0,-0.5439258814581337,0.8391332644341972
38,-0.35139181218272875,-2.7755575615628914e-17,-0.025000000000000133,0.5136413699164818,1.9453560025054606,-2.299860646727456,0.5166666666666666,0.0,0.0,-0.5396812711816491,0.8418694230911106
39,-0.3479221574599144,0.0,-0.025000000000000022,0.5253885891864954,1.9935461194416644,-2.4077751228281805,0.525,0.0,0.0,-0.5345739148392924,0.8451217247079813
40,-0.3439948831979752,-2.7755575615628914e-17,-0.025000000000000022,0.536135857096112,2.0424071571704467,-2.5142921422747952,0.5333333333333333,0.0,0.0,-0.5285465823241002,0.8489042998557099
41,-0.3396399405203277,2.7755575615628914e-17,-0.02499999999999991,0.5457345818900068,2.0920579556144796,-2.6191641741477794,0.5416666666666667,0.0,0.0,-0.5215311877592211,0.8532322193837127
42,-0.33489319943462365,0.0,-0.02499999999999991,0.5540062442044292,2.142617354696437,-2.7221436875276073,0.55,0.0,0.0,-0.5134479737176516,0.8581207247731741
43,-0.32979728204826125,5.551115123125783e-17,-0.02499999999999991,0.5607406177678804,2.194204194338991,-2.8229831514947596,0.5583333333333333,0.0,0.0,-0.5042047314805501,0.8635841526757114
44,-0.3244025388967261,0.0,-0.025000000000000022,0.5656945224171688,2.246937314464818,-2.9214350351297136,0.5666666666666667,0.0,0.0,-0.4936961722868078,0.8696344573838796
45,-0.31876817235686905,2.7755575615628914e-17,-0.025000000000000133,0.5685914910549555,2.3009355549965873,-3.0172518075129444,0.575,0.0,0.0,-0.48180362483883665,0.8762792175397962
46,-0.31296350048418875,0.0,-0.025000000000000133,0.5691228616039927,2.356317755856974,-3.1101859377249346,0.5833333333333333,0.0,0.0,-0.4683953169600451,0.8835190020876171
47,-0.3070693363413044,2.7755575615628914e-17,-0.025000000000000022,0.5669509543595448,2.413202756968651,-3.1999898948461554,0.5916666666666667,0.0,0.0,-0.45332760661193305,0.8913439746155781
48,-0.30117942885075366,2.7755575615628914e-17,-0.02499999999999991,0.5617151465535343,2.4717093982542906,-3.28641614795709,0.6000000000000001,0.0,0.0,-0.4364476563535958,0.8997296500968797
49,-0.29540186807222096,0.0,-0.02499999999999991,0.5530417673872828,2.5319565196365685,-3.369217166138214,0.6083333333333334,0.0,0.0,-0.4175981808573356,0.9086318062585329
50,-0.289860298102686,2.7755575615628914e-17,-0.02499999999999991,0.5405587258165894,2.594062961038154,-3.4481454184700047,0.6166666666666667,0.0,0.0,-0.396625003027667,0.9179807225499363
51,-0.28469470513839334,0.0,-0.025000000000000022,0.5239155077490956,2.658147562381725,-3.522953374032941,0.625,0.0,0.0,-0.37338816138624864,0.9276752022861217
52,-0.2800614640034353,2.7755575615628914e-17,-0.025000000000000022,0.5028084213453284,2.724329163589949,-3.5933935019075003,0.6333333333333333,0.0,0.0,-0.34777710933331996,0.9375772406707407
53,-0.27613225270189634,-2.7755575615628914e-17,-0.025000000000000133,0.4770094365499357,2.7927266045855057,-3.659218271174157,0.6416666666666666,0.0,0.0,-0.3197299928008959,0.9475086974289677
54,-0.27309141625411715,0.0,-0.025000000000000022,0.44639431762046117,2.863458725291062,-3.7201801509133947,0.65,0.0,0.0,-0.2892559586065654,0.957251790497462
55,-0.27113142805773527,0.0,-0.025000000000000022,0.41096161255325425,2.9366443656292947,-3.776031610205685,0.6583333333333333,0.0,0.0,-0.25645792544610757,0.9665553954512275
56,-0.2704463106490443,1.3877787807814457e-17,-0.02499999999999991,0.3708278322684039,3.012402365522876,-3.82652511813151,0.6666666666666667,0.0,0.0,-0.2215515157336485,0.9751486686019332
57,-0.2712232603180499,0.0,-0.02499999999999991,0.32617383938694294,3.0908515648944803,-3.8714131437713473,0.675,0.0,0.0,-0.18487456930341534,0.982762124638957
58,-0.2736332232771865,0.0,-0.02499999999999991,0.2770952585593933,3.172110803666779,-3.910448156205671,0.6833333333333333,0.0,0.0,-0.14688180613705007,0.9891540501994207
59,-0.2778199260932208,0.0,-0.02499999999999991,0.22328568998433346,3.2562989217624456,-3.9433826245149595,0.6916666666666667,0.0,0.0,-0.10813468705320746,0.9941362529632972
60,-0.2837016993178599,0.0,-0.025000000000000133,0.1666821674833746,3.3435347591041538,-3.969969017779694,0.7,0.0,0.0,-0.07029652536095554,0.9975261392676267
61,-0.2905826152597605,0.0,-0.025000000000000133,0.1136325749415133,3.433937155614577,-3.9899598050803506,0.7083333333333333,0.0,0.0,-0.03656044125646716,0.9993314435837254
