frame_id,dx,dy,dz,angle,x,y,z,qx,qy,qz,qw
1,-0.3000568909733575,-1.0842021724855044e-19,0.0013055791093821156,-0.14124612790549115,-0.15677884302149414,0.6781687272684905,0.7726300378959581,0.0,0.0,0.0011824162360675194,0.999999300945678
2,-0.2998141047059507,0.0,0.0013055791093822267,-0.133035158578732,-0.05669476509741687,0.6792331029433262,0.7721948448594974,0.0,0.0,-0.00414184073559872,0.999991422540874
3,-0.299547490343365,0.0,0.0013055791093822267,-0.12123453464956718,0.043333260877275584,0.6795878948349379,0.7717596518230366,0.0,0.0,-0.011131137312722935,0.9999380469719739
4,-0.2993133943332229,0.0,0.0013055791093822267,-0.10703769132131538,0.14327720892789073,0.6788783110517143,0.771324458786576,0.0,0.0,-0.019180952527671408,0.999816028607329
5,-0.29915242543017784,0.0,0.0013055791093822267,-0.09190892843398073,0.24310905307973618,0.6767495597020432,0.7708892657501152,0.0,0.0,-0.02755865172809285,0.9996201882289741
6,-0.29907682602991503,-3.469446951953614e-18,0.0013055791093821156,-0.07707758788967246,0.34280652202381584,0.6729196994820397,0.7704540727136544,0.0,0.0,-0.03564932725351672,0.9993643607145353
7,-0.2990775950936283,0.0,0.0013055791093822267,-0.06279766953019271,0.4423703631139183,0.6673981914387256,0.7700188796771937,0.0,0.0,-0.04332592971863136,0.9990609910380929
8,-0.2991433167953271,0.0,0.0013055791093821156,-0.049076718606523365,0.5418070783695285,0.66026734720685,0.769583686640733,0.0,0.0,-0.05058474788599481,0.9987197721489799
9,-0.29926315273862625,0.0,0.0013055791093822267,-0.03592006787272421,0.6411231698101313,0.6516094784211615,0.7691484936042723,0.0,0.0,-0.05742328973999063,0.9983499215182206
10,-0.2994268629769489,0.0,0.0013055791093822267,-0.023331129170289344,0.7403251394552121,0.6415068967164087,0.7687133005678115,0.0,0.0,-0.06384011707999063,0.9979601392095844
11,-0.29962482166326354,0.0,0.0013055791093822267,-0.01131167777801656,0.8394194893242553,0.6300419137273405,0.7682781075313508,0.0,0.0,-0.06983468478440698,0.997558578130158
12,-0.2998480280118718,0.0,0.0013055791093822267,0.0001378743855615372,0.9384127214367461,0.6172968410887059,0.7678429144948901,0.0,0.0,-0.075407187084905,0.9971528248648459
13,-0.30008811325306334,0.0,0.0013055791093821156,0.011018219640174243,1.0373113378121692,0.6033539904352532,0.7674077214584293,0.0,0.0,-0.08055841260250725,0.9967498894702543
14,-0.3003373442418294,0.0,0.0013055791093822267,0.021330911562900373,1.1361218404700104,0.5882956734017315,0.7669725284219686,0.0,0.0,-0.08528960937819509,0.9963562026364441
15,-0.30058862434884637,0.0,0.0013055791093822267,0.031078139455333886,1.2348507314297532,0.5722042016228897,0.7665373353855078,0.0,0.0,-0.08960236068713101,0.9959776187040015
16,-0.30083549221931954,0.0,0.0013055791093822267,0.04026252093300514,1.3335045127108838,0.555161886733476,0.7661021423490472,0.0,0.0,-0.09349847205956206,0.9956194231344261
17,-0.3010721189365215,0.0,0.0013055791093822267,0.04888691279447627,1.4320896863328867,0.5372510403682397,0.7656669493125864,0.0,0.0,-0.09697986964042063,0.9952863431618697
18,-0.3012933040745486,0.0,0.0013055791093821156,0.056954239917008126,1.5306127543152466,0.5185539741619293,0.7652317562761256,0.0,0.0,-0.10004850979841091,0.9949825604939603
19,-0.3014944710711952,6.938893903907228e-18,0.0013055791093822267,0.06446734160821588,1.629080218677449,0.49915299974929367,0.7647965632396649,0.0,0.0,-0.10270629973707252,0.9947117250712986
20,-0.3016716622984607,0.0,0.0013055791093821156,0.0714288346029186,1.7274985814389783,0.4791304287650816,0.7643613702032042,0.0,0.0,-0.10495502875712197,0.9944769690337689
21,-0.3018215341561523,-1.3877787807814457e-17,0.0013055791093822267,0.07784099171414105,1.8258743446193197,0.45856857284404173,0.7639261771667435,0.0,0.0,-0.10679630976335441,0.9942809201734335
22,-0.3019413524640738,0.0,0.0013055791093822267,0.08370563500793268,1.9242140102379581,0.43754974362092297,0.7634909841302827,0.0,0.0,-0.1082315305927783,0.994125714276391
23,-0.30202898838069026,0.0,0.0013055791093822267,0.08902404225244046,2.0225240803143785,0.41615625273047396,0.763055791093822,0.0,0.0,-0.10926181475624724,0.9940130058687218
24,-0.3020829150309943,0.0,0.0013055791093822267,0.09379686526877568,2.120811056868066,0.3944704118074436,0.7626205980573613,0.0,0.0,-0.10988799122713017,0.9939439769846519
25,-0.30210220498347445,0.0,0.0013055791093821156,0.0980240586560989,2.2190814419185045,0.37257453248658073,0.7621854050209005,0.0,0.0,-0.11011057297165786,0.9939193436692201
26,-0.30208652867512414,0.0,0.0013055791093822267,0.10170481714004433,2.317341737485181,0.35055092640263386,0.7617502119844398,0.0,0.0,-0.10992974399139224,0.9939393600144765
27,-0.302036153844062,-1.3877787807814457e-17,0.0013055791093822267,0.10483751945371504,2.4155984455875785,0.3284819051903518,0.761315018947979,0.0,0.0,-0.10934535473414589,0.9940038196093935
28,-0.3019519459907823,0.0,0.0013055791093822267,0.10741967613631748,2.513858068245183,0.30644978048448346,0.7608798259115184,0.0,0.0,-0.10835692582154938,0.9941120543613297
29,-0.3018353698509608,0.0,0.0013055791093822267,0.10944787782680816,2.612127107477479,0.28453686391977745,0.7604446328750576,0.0,0.0,-0.10696366013537931,0.9942629307232785
30,-0.3016884918242863,6.938893903907228e-18,0.0013055791093821156,0.1109177393892755,2.7104120653039514,0.26282546713098276,0.7600094398385968,0.0,0.0,-0.10516446339702165,0.9944548434385628
31,-0.30151398326448847,6.938893903907228e-18,0.0013055791093822267,0.11182383330083431,2.808719443744086,0.24139790175284792,0.7595742468021361,0.0,0.0,-0.1029579734611302,0.9946857069953188
32,-0.30131512449500875,6.938893903907228e-18,0.0013055791093821156,0.11215960279194975,2.907055744817366,0.22033647942012186,0.7591390537656754,0.0,0.0,-0.1003425986215962,0.9949529450691953
33,-0.30109580937210867,0.0,0.0013055791093822267,0.11191724064935567,3.005427470543278,0.1997235117675532,0.7587038607292147,0.0,0.0,-0.09731656529079158,0.9952534783260006
34,-0.3008605501723079,0.0,0.0013055791093822267,0.11108751236086827,3.103841122941307,0.17964131042989084,0.7582686676927539,0.0,0.0,-0.09387797545663568,0.9955837110580723
35,-0.3006144825337207,0.0,0.0013055791093822267,0.10965949065439289,3.202303204030936,0.16017218704188363,0.7578334746562932,0.0,0.0,-0.09002487434057523,0.9959395172398591
36,-0.30036337013107983,0.0,0.0013055791093822267,0.10762014935960189,3.300820215831652,0.14139845323828,0.7573982816198325,0.0,0.0,-0.08575532866661652,0.9963162267098136
37,-0.3001136087124193,0.0,0.0013055791093821156,0.10495373220206551,3.3993986603629396,0.123402420653829,0.7569630885833717,0.0,0.0,-0.0810675158999558,0.9967086123164636
38,-0.29987222907206196,0.0,0.0013055791093822267,0.10164075575428608,3.498045039644283,0.10626640092327932,0.756527895546911,0.0,0.0,-0.07595982471582122,0.9971108790045076
39,-0.2996468984809005,0.0,0.0013055791093822267,0.09765640367503055,3.596765855695167,0.09007270568137982,0.7560927025104502,0.0,0.0,-0.07043096680690511,0.9975166559585081
40,-0.2994459200424593,-6.938893903907228e-18,0.0013055791093822267,0.09296787635331731,3.695567610535077,0.07490364656287929,0.7556575094739896,0.0,0.0,-0.06448009992340689,0.9979189930619957
41,-0.2992782293939153,6.938893903907228e-18,0.0013055791093822267,0.08752987623886052,3.794456806183499,0.06084153520252589,0.7552223164375288,0.0,0.0,-0.05810696175614237,0.9983103630612427
42,-0.29915338812793507,3.469446951953614e-18,0.0013055791093821156,0.08127659882212009,3.893439944659916,0.04796868323506953,0.754787123401068,0.0,0.0,-0.051312013915079106,0.998682670936058
43,-0.29908157327697155,0.0,0.0013055791093822267,0.07410676129959304,3.9925235279838143,0.03636740229525792,0.7543519303646073,0.0,0.0,-0.044096594820146814,0.999027272062814
44,-0.29907356218048525,3.469446951953614e-18,0.0013055791093821156,0.0658536491180363,4.091714058174679,0.026120004017840315,0.7539167373281466,0.0,0.0,-0.036463079809686376,0.9993350007934239
45,-0.29914071205181614,3.469446951953614e-18,0.0013055791093822267,0.05621956684626094,4.191018037251992,0.01730880003756541,0.7534815442916859,0.0,0.0,-0.028415046190879204,0.999596211052228
46,-0.29929288980729224,0.0,0.0013055791093822267,0.04491742350874156,4.290441967235243,0.01001610198918157,0.7530463512552251,0.0,0.0,-0.020045323084742262,0.9997990723252489
47,-0.29952085505407267,0.0,0.0013055791093822267,0.032936364642376925,4.389992350143913,0.00432422150743883,0.7526111582187645,0.0,0.0,-0.011927483082403318,0.9999288650435685
48,-0.2997867026454765,0.0,0.0013055791093822267,0.021743625837957907,4.48967568799749,0.0003154702270844467,0.7521759651823037,0.0,0.0,-0.004794637423235861,0.9999885056599299
