frame_id,dx,dy,dz,angle,x,y,z,qx,qy,qz,qw
1,-0.3013618971153007,4.336808689942018e-19,-0.003412091455786137,0.8227618104212752,-0.4181184521889757,-0.3509922508342056,0.6772087156098975,0.0,0.0,-0.004692873567663074,0.9999889884082114
2,-0.29544572182999407,0.0,-0.003412091455786026,0.7906544913972742,-0.31609551725154966,-0.35523496395848575,0.6783460794284929,0.0,0.0,0.0167561302664684,0.9998596061940362
3,-0.28854856346335556,0.0,-0.003412091455786026,0.7417425175642249,-0.21542120560574096,-0.35664920166657915,0.6794834432470882,0.0,0.0,0.04612915560236248,0.9989354839044476
4,-0.28188891221570955,0.0,-0.003412091455786026,0.6795251461545376,-0.11676982889735835,-0.35382072625039235,0.6806208070656836,0.0,0.0,0.0816186593011164,0.9966636315497261
5,-0.2765143206757039,0.0,-0.003412091455786026,0.6097642887239998,-0.020815698772210345,-0.345335300001832,0.6817581708842789,0.0,0.0,0.12028554614681508,0.9927393350664425
6,-0.2729366129932704,0.0,-0.003412091455786137,0.5384472516662705,0.07189935346029404,-0.3300565369872502,0.6828955347028742,0.0,0.0,0.1590857025571065,0.9872647766642502
7,-0.27111308462250966,1.3877787807814457e-17,-0.003412091455786026,0.46774827912941563,0.16136341783634411,-0.30795945837078154,0.6840328985214696,0.0,0.0,0.19689633672835055,0.9804243125213471
8,-0.2708839305581925,1.3877787807814457e-17,-0.003412091455786137,0.3986853816721179,0.24769706472852912,-0.27929693709100617,0.685170262340065,0.0,0.0,0.2331890816551591,0.9724314125925918
9,-0.2720665998469466,-1.3877787807814457e-17,-0.003412091455786026,0.3321036675929212,0.33102086450943824,-0.24432184608650406,0.6863076261586604,0.0,0.0,0.26754275746848116,0.9635459890042413
10,-0.27446562248797685,0.0,-0.003412091455786026,0.268638966332417,0.41145538755166045,-0.20328705829585542,0.6874449899772557,0.0,0.0,0.29966035423192566,0.9540459486322432
11,-0.2778820827381849,0.0,-0.003412091455786026,0.20871123500520705,0.48912120422778516,-0.15644544665764024,0.6885823537958511,0.0,0.0,0.32936813090148337,0.9442015856513181
12,-0.2821216284875555,0.0,-0.003412091455786026,0.15254185048984892,0.5641388849104013,-0.10404988411043864,0.6897197176144464,0.0,0.0,0.3566012857541427,0.9342566686936157
13,-0.28700044700945493,0.0,-0.003412091455786137,0.1001857194426099,0.6366289999720979,-0.0463532435928309,0.6908570814330417,0.0,0.0,0.3813821868557884,0.9244174530746899
14,-0.29234913117069494,0.0,-0.003412091455786026,0.05156932105622536,0.7067121197854643,0.01639160195660318,0.6919944452516371,0.0,0.0,0.4037965941565983,0.9148487910838224
15,-0.2980146936694421,0.0,-0.003412091455786137,0.006527974486541854,0.7745088147230895,0.08393177959928319,0.6931318090702324,0.0,0.0,0.4239716575012784,0.9056754571233664
16,-0.30386114376912915,0.0,-0.003412091455786026,-0.03516165682921735,0.8401396551575627,0.15601441639662933,0.6942691728888278,0.0,0.0,0.4420576791244659,0.8969866266155202
17,-0.30976906291532824,-2.7755575615628914e-17,-0.003412091455786026,-0.07375548637209517,0.903725211461473,0.2323866394100614,0.6954065367074231,0.0,0.0,0.45821422354498126,0.8888417887009307
18,-0.3156345597389653,0.0,-0.003412091455786026,-0.10952243714864174,0.9653860540074097,0.3127955757009991,0.6965439005260186,0.0,0.0,0.47260029048135255,0.8812768948729685
19,-0.32136789871155613,0.0,-0.003412091455786026,-0.14273061221637773,1.0252427531679618,0.39698835233086266,0.6976812643446139,0.0,0.0,0.48536785872597327,0.8743100375243119
20,-0.3268920099500495,0.0,-0.003412091455786137,-0.17363809471882075,1.0834158793157178,0.4847120963610715,0.6988186281632092,0.0,0.0,0.4966580076791687,0.8679463251884639
21,-0.33214101468305385,-2.7755575615628914e-17,-0.003412091455786026,-0.20248725066855855,1.140026002823268,0.5757139348530462,0.6999559919818046,0.0,0.0,0.5065988877720827,0.8621818641725705
22,-0.33705884580561224,-2.7755575615628914e-17,-0.003412091455786026,-0.22950154538665668,1.1951936940632009,0.6697409948682063,0.7010933558003999,0.0,0.0,0.5153049430378658,0.8570068936016454
23,-0.3415980045524391,-2.7755575615628914e-17,-0.003412091455786026,-0.25488407578639927,1.249039523408106,0.7665404034679716,0.7022307196189953,0.0,0.0,0.5228769318132216,0.852408185189227
24,-0.34571846933043204,-2.7755575615628914e-17,-0.003412091455786026,-0.27881720998874604,1.3016840612305716,0.8658592877137623,0.7033680834375906,0.0,0.0,0.5294024179613072,0.8483708386411696
25,-0.3493867576091819,-2.7755575615628914e-17,-0.003412091455786137,-0.3014628883912006,1.3532478779031873,0.9674447746669976,0.7045054472561859,0.0,0.0,0.5349565059684545,0.8448795989500651
26,-0.35257513341021446,-2.7755575615628914e-17,-0.003412091455786026,-0.3229632692541181,1.4038515437985426,1.0710439913890981,0.7056428110747813,0.0,0.0,0.5396026687885356,0.8419198060601081
27,-0.355260949016522,0.0,-0.003412091455786026,-0.34344149881761354,1.4536156292892262,1.176404064941484,0.7067801748933766,0.0,0.0,0.5433935711955759,0.8394780680776113
28,-0.3574261083751322,0.0,-0.003412091455786026,-0.3630024560852836,1.5026607047478278,1.2832721223855743,0.707917538711972,0.0,0.0,0.5463718284148548,0.8375427303216287
29,-0.3590566401627366,0.0,-0.003412091455786026,-0.38173337160236165,1.551107340546935,1.3913952907827898,0.7090549025305674,0.0,0.0,0.5485706643447252,0.8361041957916411
30,-0.3601423699046707,2.7755575615628914e-17,-0.003412091455786137,-0.3997042532080748,1.5990761070591386,1.500520697194549,0.7101922663491627,0.0,0.0,0.5500144493625548,0.8351551385775015
31,-0.36067668243702894,-2.7755575615628914e-17,-0.003412091455786026,-0.4169680743305253,1.6466875746570278,1.6103954686822735,0.7113296301677581,0.0,0.0,0.5507191072854937,0.8346906402198775
32,-0.36065636812355345,0.0,-0.003412091455786137,-0.43356069546332676,1.6940623137131912,1.720766732307382,0.7124669939863534,0.0,0.0,0.5506923865593966,0.8347082696280875
33,-0.360081548446322,-2.7755575615628914e-17,-0.003412091455786026,-0.449500499781077,1.7413208946002166,1.8313816151312952,0.7136043578049488,0.0,0.0,0.5499339936470817,0.8352081193519203
34,-0.35895567881952023,2.7755575615628914e-17,-0.003412091455786026,-0.4647877316033314,1.7885838876906952,1.9419872442154325,0.7147417216235441,0.0,0.0,0.5484355879585495,0.8361928042386876
35,-0.3572856287080084,5.551115123125783e-17,-0.003412091455786026,-0.47940353341400244,1.8359718633572149,2.0523307466212133,0.7158790854421395,0.0,0.0,0.5461806383441836,0.8376674222493914
36,-0.35508184136475185,0.0,-0.003412091455786026,-0.4933086850046702,1.8836053919723648,2.1621592494100597,0.7170164492607348,0.0,0.0,0.5431441418760516,0.8396394709312608
37,-0.3523585777309026,5.551115123125783e-17,-0.003412091455786137,-0.5064420586328299,1.9316050439087353,2.2712198796433887,0.7181538130793301,0.0,0.0,0.5392922070951144,0.842118706220495
38,-0.3491342512461993,-2.7755575615628914e-17,-0.003412091455786026,-0.5187188186014047,1.9800913895389138,2.379259764382622,0.7192911768979255,0.0,0.0,0.5345815069502359,0.8451169223408173
39,-0.3454318624287699,2.7755575615628914e-17,-0.003412091455786137,-0.5300284143967602,2.029184999235491,2.4860260306891786,0.7204285407165208,0.0,0.0,0.5289586124001413,0.8486476220244284
40,-0.3412795439583302,0.0,-0.003412091455786026,-0.5402324459307054,2.079006443371055,2.59126580562448,0.7215659045351163,0.0,0.0,0.522359227596751,0.8527255345915975
41,-0.33671122836734496,0.0,-0.003412091455786026,-0.5491625205538571,2.1296762923181953,2.6947262162499435,0.7227032683537116,0.0,0.0,0.5147073637947249,0.8573659251775082
42,-0.3317674508501095,0.0,-0.003412091455786026,-0.5566182780110486,2.1813151164495013,2.7961543896269903,0.723840632172307,0.0,0.0,0.5059145144535642,0.8625836214913974
43,-0.32649629839203603,0.0,-0.003412091455786026,-0.562365835567562,2.234043486137561,2.895297452817042,0.7249779959909023,0.0,0.0,0.49587893208560496,0.8683916655021742
44,-0.3209545122414446,5.551115123125783e-17,-0.003412091455786137,-0.5661370052590797,2.2879819717549656,2.9919025328815163,0.7261153598094976,0.0,0.0,0.48448516271329,0.8747994782295409
45,-0.3152087419801173,0.0,-0.003412091455786026,-0.5676297611981792,2.343251143674302,3.085716756881833,0.727252723628093,0.0,0.0,0.47160407107793734,0.8818104105433978
46,-0.3093369336981111,0.0,-0.003412091455786026,-0.5665105850497916,2.3999715722681607,3.176487251879415,0.7283900874466883,0.0,0.0,0.4570936926382221,0.8894185494750796
47,-0.3034298089318064,0.0,-0.003412091455786026,-0.5624194795183151,2.4582638279091302,3.2639611449356765,0.7295274512652837,0.0,0.0,0.4408013764662115,0.8976046716152347
48,-0.29759235150506913,-2.7755575615628914e-17,-0.003412091455786026,-0.5549785795191168,2.5182484809698007,3.3478855631120434,0.730664815083879,0.0,0.0,0.42256782629058653,0.9063313037648256
49,-0.29194516301844897,0.0,-0.003412091455786137,-0.5438053387712646,2.5800461018227594,3.4280076334699325,0.7318021789024743,0.0,0.0,0.4022337763974559,0.9155369949516193
50,-0.2866254735051226,0.0,-0.003412091455786026,-0.5285310991714676,2.643777260840597,3.5040744830707635,0.7329395427210698,0.0,0.0,0.3796500953819008,0.9251301557491862
51,-0.2817875063987823,0.0,-0.003412091455786026,-0.5088252578346479,2.709562528395902,3.5758332389759575,0.7340769065396651,0.0,0.0,0.35469199228391035,0.9349832033837134
52,-0.2776018117148461,0.0,-0.003412091455786026,-0.4844239430932933,2.7775224748612635,3.6430310282469343,0.7352142703582605,0.0,0.0,0.32727756328659874,0.9449282494291227
53,-0.27425312934898294,0.0,-0.003412091455786026,-0.45515973832581014,2.847777670609272,3.7054149779451144,0.7363516341768558,0.0,0.0,0.2973900114087974,0.9547560846175716
54,-0.27193637424779155,-1.3877787807814457e-17,-0.003412091455786137,-0.4209851505670307,2.920448686012514,3.7627322151319156,0.7374889979954511,0.0,0.0,0.26510142849302953,0.9642205311083949
55,-0.2708505040451908,1.3877787807814457e-17,-0.003412091455786026,-0.381976654889179,2.995656091443581,3.814729866868759,0.7386263618140465,0.0,0.0,0.23059422021757955,0.9730500015940837
56,-0.2711903765255042,-1.3877787807814457e-17,-0.003412091455786137,-0.3382967451216054,3.0735204572750616,3.8611550602170643,0.7397637256326418,0.0,0.0,0.19417465160945271,0.9809669743025744
57,-0.2731372066453917,0.0,-0.003412091455786026,-0.29007268968662014,3.154162353879544,3.9017549222382533,0.7409010894512372,0.0,0.0,0.1562725558249156,0.9877139708923574
58,-0.27684874453263564,0.0,-0.003412091455786026,-0.23710049026565097,3.237702351629619,3.9362765799937414,0.7420384532698325,0.0,0.0,0.11742317330790751,0.9930819696129324
59,-0.28234291625387875,-6.938893903907228e-18,-0.003412091455786026,-0.18024775258586573,3.3242610208978727,3.9644671605449533,0.743175817088428,0.0,0.0,0.07887347904557801,0.9968846344002132
60,-0.28906048357314096,0.0,-0.003412091455786026,-0.1255244497780347,3.413958932056896,3.9860737909533057,0.7443131809070233,0.0,0.0,0.043740922636126806,0.99904290783076
