frame_id,dx,dy,dz,angle,x,y,z,qx,qy,qz,qw
1,-0.3007701324812878,0.0,-0.011104114763747064,0.6081635524245987,-1.3343931494074999,0.5528553796425038,0.509410846785479,0.0,0.0,-0.003697874264225295,0.9999931628395896
2,-0.2974352357803614,0.0,-0.011104114763747064,0.5828534974217353,-1.2332502891252426,0.5495187720585304,0.5131122183733947,0.0,0.0,0.013088705912054672,0.9999143392198893
3,-0.293582521556956,0.0,-0.011104114763747064,0.545320747683626,-1.1328693356978232,0.5484065695305393,0.5168135899613104,0.0,0.0,0.03564034370471331,0.999364681135275
4,-0.2898984304739885,0.0,-0.011104114763747175,0.4987556851058535,-1.0336312425526617,0.5506309745865215,0.520514961549226,0.0,0.0,0.06232892773190908,0.9980556621590754
5,-0.28694960657148627,0.0,-0.011104114763747175,0.44766858611121474,-0.9359169631171764,0.5573041897544682,0.5242163331371418,0.0,0.0,0.09087675407021094,0.9958621468705708
6,-0.284995336971281,0.0,-0.011104114763747175,0.39628454259380014,-0.8400326512006003,0.5693200383105982,0.5279177047250575,0.0,0.0,0.11915413602946817,0.9928757685969937
7,-0.2839956052741047,0.0,-0.011104114763747064,0.3458294526239837,-0.7459852621394201,0.5866988265240427,0.5316190763129732,0.0,0.0,0.146537028096603,0.9892051856903175
8,-0.28385595768069183,0.0,-0.011104114763747064,0.29668820584665767,-0.6537069516519357,0.60924248141216,0.535320447900889,0.0,0.0,0.1728268473098934,0.9849522226224594
9,-0.28447751185970344,-1.3877787807814457e-17,-0.011104114763747064,0.24917450178339634,-0.5631298754564473,0.6367529299923088,0.5390218194888047,0.0,0.0,0.19786650752615292,0.9802289759027749
10,-0.28575974357128014,1.3877787807814457e-17,-0.011104114763747175,0.20352744740504775,-0.4741861892712553,0.6690320992818478,0.5427231910767203,0.0,0.0,0.2215416667180046,0.9751509062231387
11,-0.2876029864575772,1.3877787807814457e-17,-0.011104114763747175,0.15991358290636193,-0.3868080488146593,0.705881916298136,0.546424562664636,0.0,0.0,0.24377878804852363,0.9698308628300055
12,-0.28991051453356653,2.7755575615628914e-17,-0.011104114763747175,0.11843303146507667,-0.3009276098049598,0.7471043080585318,0.5501259342525517,0.0,0.0,0.2645408777827615,0.9643744729004009
13,-0.2925901491729268,0.0,-0.011104114763747175,0.07912828674523975,-0.216477027960457,0.7925012015803936,0.5538273058404675,0.0,0.0,0.2838218410418803,0.9588770320263165
14,-0.2955553929662694,-2.7755575615628914e-17,-0.011104114763747064,0.04199425304393789,-0.13338845899945073,0.8418745238810807,0.5575286774283832,0.0,0.0,0.3016402999627831,0.9534218003792247
15,-0.2987261353604426,0.0,-0.011104114763747064,0.006988424663903814,-0.05159405864024142,0.8950262019779515,0.5612300490162989,0.0,0.0,0.31803352542933166,0.94807946750417
16,-0.30202899891658375,0.0,-0.011104114763747064,-0.025959575255110945,0.028974017398871267,0.9517581628883646,0.5649314206042146,0.0,0.0,0.33305191353916824,0.9429084912587745
17,-0.30539740346851807,0.0,-0.011104114763747175,-0.056939559246296345,0.10838361339958678,1.0118723336296787,0.5686327921921303,0.0,0.0,0.3467542392425229,0.937956021126438
18,-0.30877142301496696,2.7755575615628914e-17,-0.011104114763747175,-0.0860536487626673,0.18670257364360493,1.0751706412192525,0.572334163780046,0.0,0.0,0.3592037656507106,0.9332591573310971
19,-0.312097501336306,2.7755575615628914e-17,-0.011104114763747175,-0.11341047729890674,0.263998742412626,1.141455012674445,0.5760355353679617,0.0,0.0,0.37046518320459826,0.9288463532970259
20,-0.3153280806758204,-2.7755575615628914e-17,-0.011104114763747064,-0.13912062843781303,0.3403399639883494,1.2105273750126142,0.5797369069558774,0.0,0.0,0.38060229211668134,0.9247388254180358
21,-0.3184211858163549,0.0,-0.011104114763747064,-0.16329315221018914,0.41579408265247547,1.2821896552511194,0.5834382785437932,0.0,0.0,0.38967631371048306,0.92095188285437
22,-0.3213399949462118,-2.7755575615628914e-17,-0.011104114763747064,-0.1860329802004278,0.4904289426867038,1.356243780407319,0.5871396501317089,0.0,0.0,0.3977447106693842,0.9174961281305376
23,-0.3240524195080927,0.0,-0.011104114763747175,-0.20743906158191405,0.5643123883727343,1.4324916774985719,0.5908410217196245,0.0,0.0,0.40486040376338706,0.9143785066724541
24,-0.3265307079261401,-2.7755575615628914e-17,-0.011104114763747175,-0.22760305790229451,0.637512263992267,1.5107352735422364,0.5945423933075402,0.0,0.0,0.4110712867521261,0.911603201622258
25,-0.3287510825880072,0.0,-0.011104114763747175,-0.2466084564097849,0.7100964138270012,1.5907764955556711,0.5982437648954559,0.0,0.0,0.4164199575212924,0.9091723813325859
26,-0.33069341546740205,0.0,-0.011104114763747175,-0.2645299852248686,0.7821326821586378,1.6724172705562355,0.6019451364833717,0.0,0.0,0.4209435995249027,0.9070868128349229
27,-0.33234094501559974,0.0,-0.011104114763747064,-0.28143323598042913,0.8536889132688759,1.755459525561288,0.6056465080712874,0.0,0.0,0.4246739619541982,0.9053463569475079
28,-0.33368003514974853,0.0,-0.011104114763747064,-0.2973744193478979,0.9248329514394156,1.8397051875881865,0.6093478796592031,0.0,0.0,0.42763739921815297,0.9039503607997146
29,-0.33469997608131863,2.7755575615628914e-17,-0.011104114763747064,-0.31240019569753785,0.9956326409519566,1.9249561836542906,0.6130492512471188,0.0,0.0,0.42985494025909277,0.902897962305183
30,-0.3353928261646812,0.0,-0.011104114763747175,-0.3265475370895734,1.0661558260881985,2.011014440776958,0.6167506228350345,0.0,0.0,0.4313423661514601,0.9021883191234853
31,-0.3357532937513301,0.0,-0.011104114763747175,-0.3398435882171513,1.1364703511298422,2.0976818859735484,0.6204519944229502,0.0,0.0,0.4321102806673796,0.9018207722943392
32,-0.3357786580941987,-2.7755575615628914e-17,-0.011104114763747175,-0.35230550330611854,1.2066440603585866,2.1847604462614205,0.6241533660108659,0.0,0.0,0.43216416339909747,0.9017949522333545
33,-0.33546872857200855,0.0,-0.011104114763747064,-0.36394024384573176,1.2767447980561322,2.2720520486579314,0.6278547375987816,0.0,0.0,0.4315043989602232,0.9021108322584185
34,-0.33482584182979236,0.0,-0.011104114763747064,-0.3747443289028447,1.3468404085041785,2.3593586201804424,0.6315561091866974,0.0,0.0,0.4301262790795085,0.90276873231477
35,-0.3338548968066215,2.7755575615628914e-17,-0.011104114763747064,-0.3847035361690548,1.4169987359844252,2.4464820878463094,0.6352574807746131,0.0,0.0,0.4280199773676841,0.903769273085873
36,-0.3325634279996259,0.0,-0.011104114763747175,-0.39379255829551063,1.4872876247785727,2.5332243786728936,0.6389588523625287,0.0,0.0,0.4251704994817871,0.9051132781980428
37,-0.3309617176501731,-2.7755575615628914e-17,-0.011104114763747175,-0.4019746259614445,1.5577749191683208,2.619387419677552,0.6426602239504444,0.0,0.0,0.4215576146344726,0.9068016197293063
38,-0.32906294778250234,2.7755575615628914e-17,-0.011104114763747175,-0.4092011169644441,1.628528463435369,2.704773137877644,0.6463615955383601,0.0,0.0,0.4171557782098611,0.9088349997145385
39,-0.326883393114229,2.7755575615628914e-17,-0.011104114763747175,-0.41541117986092707,1.6996161018614173,2.789183460290527,0.6500629671262759,0.0,0.0,0.41193405998433136,0.911213657834882
40,-0.3244426557085889,0.0,-0.011104114763747175,-0.42053141172719777,1.7711056787281656,2.872420313933561,0.6537643387141916,0.0,0.0,0.4058560984621176,0.9139369930914866
41,-0.32176394173941525,0.0,-0.011104114763747064,-0.42447564275784094,1.8430650383173142,2.954285625824106,0.6574657103021073,0.0,0.0,0.3988801094824176,0.9170030851961702
42,-0.3188743797455857,-2.7755575615628914e-17,-0.011104114763747064,-0.4271448957619331,1.915562024910562,3.034581322979517,0.661167081890023,0.0,0.0,0.39095898687129554,0.9204081000211646
43,-0.31580537807353987,2.7755575615628914e-17,-0.011104114763747064,-0.42842760585045747,1.9886644827896094,3.1131093324171557,0.6648684534779388,0.0,0.0,0.3820405447337249,0.9241455633067546
44,-0.3125930166111447,2.7755575615628914e-17,-0.011104114763747175,-0.4282002037091751,2.0624402562361572,3.1896715811543803,0.6685698250658544,0.0,0.0,0.37206796501771155,0.9282054887833723
45,-0.309278464130147,0.0,-0.011104114763747175,-0.426328182590906,2.1369571895319037,3.264069996208548,0.6722711966537701,0.0,0.0,0.36098052980623163,0.9325733521288352
46,-0.3059084072850716,2.7755575615628914e-17,-0.011104114763747064,-0.4226677803594495,2.21228312695855,3.33610650459702,0.6759725682416858,0.0,0.0,0.3487147342282162,0.9372289123432677
47,-0.30253547029936556,0.0,-0.011104114763747064,-0.41706840635244496,2.2884859127977952,3.405583033337152,0.6796739398296016,0.0,0.0,0.335205890575563,0.9421448991123625
48,-0.29921859545541934,-2.7755575615628914e-17,-0.011104114763747064,-0.409375916685054,2.3656333913313397,3.4723015094463054,0.6833753114175173,0.0,0.0,0.320390343126391,0.9472856105902556
49,-0.29602334380318907,2.7755575615628914e-17,-0.011104114763747175,-0.3994367722627601,2.443793406840883,3.5360638599418364,0.6870766830054329,0.0,0.0,0.30420841007398686,0.9526055024196832
50,-0.29302206358533905,2.7755575615628914e-17,-0.011104114763747175,-0.3871029724375278,2.523033803608124,3.5966720118411057,0.6907780545933486,0.0,0.0,0.2866081451867581,0.9580478960430977
51,-0.29029386204219343,0.0,-0.011104114763747175,-0.3722373993180591,2.603422425914766,3.6539278921614717,0.6944794261812643,0.0,0.0,0.2675499567527816,0.963543989987787
52,-0.287924306790278,0.0,-0.011104114763747175,-0.354718761073725,2.6850271180425036,3.707633427920293,0.6981807977691801,0.0,0.0,0.247012024198388,0.9690124147302835
53,-0.28600477928156576,1.3877787807814457e-17,-0.011104114763747175,-0.3344445592659645,2.767915724273042,3.7575905461349257,0.7018821693570958,0.0,0.0,0.22499630637913887,0.9743596164228815
54,-0.28463140934190184,0.0,-0.011104114763747064,-0.3113291669958296,2.8521560888880773,3.8036011738227327,0.7055835409450115,0.0,0.0,0.20153474262005155,0.9794813666002379
55,-0.2839035411163165,0.0,-0.011104114763747064,-0.2852915935259171,2.9378160561693107,3.845467238001069,0.7092849125329272,0.0,0.0,0.17669502835468331,0.984265648569906
56,-0.28392172038677127,1.3877787807814457e-17,-0.011104114763747064,-0.2562222706120617,3.0249634703984425,3.882990665687296,0.712986284120843,0.0,0.0,0.15058514573658743,0.9885970432301984
57,-0.28478525132777105,0.0,-0.011104114763747175,-0.22390573398351193,3.113666175857173,3.9159733838987707,0.7166876557087586,0.0,0.0,0.12335571342734465,0.9923625184199728
58,-0.2865894419395642,0.0,-0.011104114763747175,-0.18784188102538024,3.2039920168272,3.944217319652852,0.7203890272966743,0.0,0.0,0.09519926688376366,0.9954582359822003
59,-0.28939509946998687,6.938893903907228e-18,-0.011104114763747064,-0.14759527397671393,3.296008837590226,3.9675243999669023,0.72409039888459,0.0,0.0,0.06658452976054186,0.9977807877467714
60,-0.2929981186769191,0.0,-0.011104114763747064,-0.10660699486971276,3.3897844824279484,3.9856965518582737,0.7277917704725058,0.0,0.0,0.039461500864851846,0.9992210916256188
61,-0.2968708059719165,1.734723475976807e-18,-0.011104114763747064,-0.06956667982352223,3.4853867956220688,3.998535702344329,0.7314931420604215,0.0,0.0,0.016150372572650645,0.9998695742274412
