frame_id,dx,dy,dz,angle,x,y,z,qx,qy,qz,qw
1,-0.30142785138833894,0.0,-0.023323703438635046,0.8836886396634906,-0.438574891770698,-0.9466079121471508,0.2135548209113937,0.0,0.0,-0.00457090938421109,0.9999895533391343
2,-0.2952041924452886,0.0,-0.023323703438635046,0.8525492604173429,-0.3364520080767362,-0.9507412671506625,0.22132938872427205,0.0,0.0,0.016337475269296138,0.9998665345443987
3,-0.2878608892605676,0.0,-0.023323703438635046,0.8049229074857791,-0.23574438017874885,-0.952119052151833,0.22910395653715038,0.0,0.0,0.04505100483624785,0.9989846880524468
4,-0.2806232064512538,0.0,-0.023323703438635074,0.744023772079465,-0.13715963597472347,-0.9493634821494918,0.23687852435002874,0.0,0.0,0.07990942101598475,0.9968021290270653
5,-0.27457660045444143,-1.3877787807814457e-17,-0.023323703438635046,0.6752760936019092,-0.0414054033626472,-0.9410967721424686,0.2446530921629071,0.0,0.0,0.11814423977913635,0.9929964444080401
6,-0.27029187483285305,0.0,-0.0233237034386351,0.6044216538305636,0.05094802816902368,-0.9262085415115773,0.2524276599757854,0.0,0.0,0.15683226159481312,0.9876252536883897
7,-0.26776535647132366,0.0,-0.023323703438635046,0.5335829144819949,0.1398797227699568,-0.904658027165571,0.2602022277886638,0.0,0.0,0.19487122489440362,0.9808288360912697
8,-0.2668670842153579,0.0,-0.023323703438635046,0.4638076729810279,0.22550608299935104,-0.8766718703951877,0.26797679560154214,0.0,0.0,0.23171020483872715,0.9727848585240187
9,-0.26744052073965674,0.0,-0.023323703438635046,0.3960136430730552,0.30794351141640525,-0.8424767124911653,0.2757513634144205,0.0,0.0,0.26688327033224596,0.9637288622931064
10,-0.2693110414880895,-2.7755575615628914e-17,-0.023323703438635046,0.33093735404660507,0.38730841058031823,-0.8022991947442418,0.28352593122729886,0.0,0.0,0.30003560249073224,0.9539280042215048
11,-0.2722949455051688,0.0,-0.0233237034386351,0.26911107540778345,0.46371718305028875,-0.7563659584451549,0.2913004990401772,0.0,0.0,0.3309321730038435,0.9436545431835499
12,-0.2762077485109475,0.0,-0.023323703438635046,0.2108658248028692,0.5372862313855157,-0.7049036448846422,0.29907506685305557,0.0,0.0,0.3594511677192109,0.9331638966576534
13,-0.28087092917373035,0.0,-0.023323703438635046,0.156353578781964,0.6081319581451976,-0.6481388953534424,0.3068496346659339,0.0,0.0,0.38556707925293027,0.9226798076236222
14,-0.2861167789082517,-2.7755575615628914e-17,-0.023323703438635046,0.10558015082569383,0.6763707658885336,-0.5862983511422926,0.3146242024788123,0.0,0.0,0.40932895692418436,0.9123868724523382
15,-0.29179139983723834,0.0,-0.0233237034386351,0.058441168040501035,0.7421190571747224,-0.5196086535419313,0.3223987702916906,0.0,0.0,0.4308383046580152,0.9024291413952717
16,-0.29775613776363463,0.0,-0.0233237034386351,0.014755843348146502,0.8054932345629625,-0.44829644384309575,0.33017333810456895,0.0,0.0,0.45022948727059164,0.8929128786124995
17,-0.30388783371678163,-2.7755575615628914e-17,-0.023323703438635046,-0.025704354417276143,0.8666097006124533,-0.37258836333652434,0.33794790591744733,0.0,0.0,0.4676539635169364,0.883911630428574
18,-0.31007827209710637,-2.7755575615628914e-17,-0.02332370343863499,-0.06319313058662523,0.9255848578823929,-0.2927110533129548,0.3457224737303257,0.0,0.0,0.48326855339063524,0.8754721613527884
19,-0.3162331436772123,2.7755575615628914e-17,-0.023323703438635046,-0.09797267960935596,0.9825351089319809,-0.20889115506312483,0.35349704154320405,0.0,0.0,0.4972273117325563,0.8676203089296696
20,-0.32227076423834955,2.7755575615628914e-17,-0.0233237034386351,-0.13030205214142254,1.037576856320415,-0.12135530987777282,0.3612716093560824,0.0,0.0,0.5096763155394607,0.8603662321233442
21,-0.3281207159749566,0.0,-0.0233237034386351,-0.16042953654111025,1.0908265026068955,-0.03033015904763603,0.3690461771689607,0.0,0.0,0.5207506400859054,0.8537088325946498
22,-0.3337225185375744,5.551115123125783e-17,-0.023323703438635046,-0.18858805003214907,1.14240045035062,0.06395765613654733,0.3768207449818391,0.0,0.0,0.5305728844322132,0.847639318522496
23,-0.33902439179311217,0.0,-0.02332370343863499,-0.21499267833723568,1.1924151021107876,0.16128149438403952,0.3845953127947175,0.0,0.0,0.5392527344483773,0.8421439831703056
24,-0.3439821414378004,0.0,-0.023323703438635046,-0.23983967832565323,1.2409868604465972,0.26141471440410247,0.3923698806075958,0.0,0.0,0.5468871794147411,0.8372063144719997
25,-0.34855817856934024,-2.7755575615628914e-17,-0.0233237034386351,-0.26330642506576285,1.2882321279172473,0.36413067490599793,0.40014444842047414,0.0,0.0,0.5535611079322243,0.8328085613061673
26,-0.35272067223234077,-1.3877787807814457e-17,-0.0233237034386351,-0.28555192535355856,1.3342673070819373,0.46920273459898887,0.40791901623335247,0.0,0.0,0.5593480949845286,0.8289328734205073
27,-0.35644282729685745,0.0,-0.023323703438635046,-0.3067176303074196,1.3792088004998655,0.576404252192337,0.41569358404623086,0.0,0.0,0.5643112557938744,0.8255621155215036
28,-0.3597022769212296,-2.7755575615628914e-17,-0.02332370343863499,-0.3269283623578191,1.4231730107302316,0.6855085863953044,0.42346815185910924,0.0,0.0,0.5685040873914888,0.822680437727293
29,-0.36248057794647365,0.0,-0.023323703438635046,-0.3462932316872649,1.4662763403322328,0.7962890959171532,0.4312427196719876,0.0,0.0,0.5719712498338129,0.8202736673595867
30,-0.36476279796609734,5.551115123125783e-17,-0.023323703438635046,-0.364906459001861,1.5086351918650691,0.9085191394671451,0.4390172874848659,0.0,0.0,0.5747492595289098,0.8183295721596342
31,-0.36653718392886236,-2.7755575615628914e-17,-0.0233237034386351,-0.3828480499963023,1.5503659678879385,1.0219720757545434,0.44679185529774423,0.0,0.0,0.5768670802394289,0.8168380327433562
32,-0.3677949036023119,-1.3877787807814457e-17,-0.023323703438635046,-0.40018428572685205,1.5915850709600412,1.136421263488609,0.4545664231106226,0.0,0.0,0.5783466052971697,0.8157911522817833
33,-0.36852985284097634,-1.3877787807814457e-17,-0.0233237034386351,-0.4169680052197524,1.6324089036405744,1.251640061378605,0.46234099092350095,0.0,0.0,0.5792030290666568,0.8151833236272744
34,-0.3687385232515745,-4.163336342344337e-17,-0.023323703438635046,-0.43323866420769463,1.6729538684887384,1.367401828133792,0.47011555873637934,0.0,0.0,0.5794451079111979,0.815011267969824
35,-0.3684199264762148,4.163336342344337e-17,-0.0233237034386351,-0.4490221585566191,1.7133363680637297,1.4834799224634332,0.47789012654925767,0.0,0.0,0.579075311668199,0.8152740541783347
36,-0.36757557290905585,0.0,-0.023323703438635046,-0.4643304039908235,1.75367280492475,1.5996477030767915,0.48566469436213605,0.0,0.0,0.5780898665105862,0.8159731038690997
37,-0.36620950422962867,-1.3877787807814457e-17,-0.023323703438635046,-0.47916066616522934,1.794079581630996,1.7156785286831275,0.4934392621750144,0.0,0.0,0.5764786894797962,0.8171121835927162
38,-0.36432838069517093,1.3877787807814457e-17,-0.0233237034386351,-0.49349463785468595,1.8346731007416681,1.831345757991704,0.5012138299878928,0.0,0.0,0.5742252142608557,0.8186973820081962
39,-0.36194162570639515,-4.163336342344337e-17,-0.02332370343863499,-0.5072972638735058,1.875569764815963,1.9464227497117832,0.5089883978007711,0.0,0.0,0.5713061072451808,0.8207370661937707
40,-0.3590616317626059,1.3877787807814457e-17,-0.0233237034386351,-0.5205153201955423,1.9168859764130812,2.060682862552627,0.5167629656136494,0.0,0.0,0.5676908729421127,0.8232418069912522
41,-0.3557040335570673,1.3877787807814457e-17,-0.02332370343863499,-0.533075762637534,1.9587381380922213,2.1738994552234976,0.5245375334265279,0.0,0.0,0.5633413488041293,0.8262242581330714
42,-0.35188805561108705,1.3877787807814457e-17,-0.0233237034386351,-0.5448838736409313,2.0012426524125813,2.2858458864336573,0.5323121012394061,0.0,0.0,0.5582110921454767,0.8296989674609425
43,-0.3476369434429514,-1.3877787807814457e-17,-0.0233237034386351,-0.5558212547054698,2.044515921933361,2.3962955148923677,0.5400866690522845,0.0,0.0,0.5522446669478969,0.8336820903843422
44,-0.3429784886852392,-2.7755575615628914e-17,-0.02332370343863499,-0.5657437388875811,2.0886743492137576,2.505021699308891,0.5478612368651629,0.0,0.0,0.5453768472298233,0.8381909654163889
45,-0.3379456595640508,0.0,-0.0233237034386351,-0.5744793350108819,2.133834336812972,2.61179779839249,0.5556358046780412,0.0,0.0,0.5375317680942283,0.8432434988124681
46,-0.332577348336265,0.0,-0.02332370343863499,-0.5818263659714783,2.1801122872902017,2.7163971708524266,0.5634103724909196,0.0,0.0,0.5286220780112305,0.8488572899133803
47,-0.3269192460045346,-2.7755575615628914e-17,-0.0233237034386351,-0.5875520313990559,2.2276246032046467,2.818593175397961,0.5711849403037979,0.0,0.0,0.5185481795421993,0.8550484111987292
48,-0.3210248509090177,-5.551115123125783e-17,-0.0233237034386351,-0.5913917136830757,2.2764876871155044,2.918159170738359,0.5789595081166763,0.0,0.0,0.5071976944993075,0.8618297388084186
49,-0.3149566101827099,0.0,-0.02332370343863499,-0.593049458675095,2.3268179415819725,3.0148685155828794,0.5867340759295546,0.0,0.0,0.4944453577173055,0.8692087138494446
50,-0.30878717953526313,2.7755575615628914e-17,-0.0233237034386351,-0.5922001974061479,2.3787317691632532,3.1084945686407868,0.594508643742433,0.0,0.0,0.48015363467706834,0.8771844088368195
51,-0.3026007647808795,0.0,-0.02332370343863499,-0.5884944238674994,2.4323455724185434,3.198810688621341,0.6022832115553114,0.0,0.0,0.4641744724600565,0.8857437886411782
52,-0.2964944749175914,0.0,-0.0233237034386351,-0.5815661809342221,2.487775753907041,3.285590234233806,0.6100577793681896,0.0,0.0,0.4463527235083746,0.8948571093848763
53,-0.2905795686025103,-2.7755575615628914e-17,-0.0233237034386351,-0.5710452778442358,2.5451387161879477,3.3686065641874423,0.617832347181068,0.0,0.0,0.4265319048599205,0.904472517070899
54,-0.2849824124579198,0.0,-0.02332370343863499,-0.5565745696222234,2.6045508618204583,3.4476330371915127,0.6256069149939464,0.0,0.0,0.40456302397233596,0.9145101200284003
55,-0.2798448940779797,2.7755575615628914e-17,-0.0233237034386351,-0.5378327130246148,2.6661285933637755,3.522443011955281,0.6333814828068247,0.0,0.0,0.3803171321882337,0.9248561396044888
56,-0.27532395656593656,0.0,-0.02332370343863499,-0.5145618534944765,2.7299883133770955,3.592809847188006,0.6411560506197032,0.0,0.0,0.3537019364144807,0.9353581881699902
57,-0.27158986946194946,-2.7755575615628914e-17,-0.0233237034386351,-0.4865979343629706,2.7962464244196172,3.6585069015989538,0.6489306184325814,0.0,0.0,0.32468207078354094,0.9458232144072759
58,-0.2688228625568806,2.7755575615628914e-17,-0.0233237034386351,-0.4538985198303995,2.8650193290505417,3.7193075338973838,0.6567051862454598,0.0,0.0,0.2933014178911897,0.956020019802419
59,-0.26720787323124967,-1.3877787807814457e-17,-0.02332370343863499,-0.41655902991183164,2.9364234298290643,3.7749851027925576,0.6644797540583381,0.0,0.0,0.25970426805087193,0.9656881966536408
60,-0.2669274332858497,0.0,-0.0233237034386351,-0.3748028262761215,3.0105751293143874,3.8253129669937387,0.6722543218712165,0.0,0.0,0.224150535472404,0.97455453282381
61,-0.26815314179638483,0.0,-0.02332370343863499,-0.3289221510416506,3.087590830065708,3.8700644852101886,0.6800288896840949,0.0,0.0,0.18701950218264204,0.9823562010815409
62,-0.27103665078047084,0.0,-0.0233237034386351,-0.2791286312850358,3.167586934642225,3.909013016151169,0.6878034574969731,0.0,0.0,0.14879755160473604,0.9888676800444213
63,-0.2757007767347647,0.0,-0.02332370343863499,-0.2252313846357927,3.250679845603137,3.9419319185259436,0.6955780253098516,0.0,0.0,0.11005329830163049,0.9939256871280329
64,-0.2820645871383764,0.0,-0.0233237034386351,-0.16873231776303063,3.3369859655076435,3.9685945510437737,0.7033525931227299,0.0,0.0,0.07225730460897235,0.997386024531448
65,-0.2894263455405264,0.0,-0.0233237034386351,-0.115682105976566,3.426621696914941,3.988774272413922,0.7111271609356082,0.0,0.0,0.03847692548800208,0.9992594889241686
