frame_id,dx,dy,dz,angle,x,y,z,qx,qy,qz,qw
1,-0.3009710790432284,0.0,0.015474712933712942,0.6519888209889158,-0.7453301253151114,0.6698666107209263,1.0543360210296884,0.0,0.0,-0.004284537863476411,0.9999908213255242
2,-0.29677720313549266,0.0,0.015474712933712942,0.6225148100378196,-0.6438900817675672,0.6659980802773177,1.0491777833851172,0.0,0.0,0.015209414945845946,0.9998843301587464
3,-0.29198367405519665,3.469446951953614e-18,0.015474712933712942,0.5784441973192921,-0.5434100672517193,0.6647085701294482,1.0440195457405463,0.0,0.0,0.04155106317366663,0.9991363816562472
4,-0.28749824304584976,-6.938893903907228e-18,0.015474712933713164,0.5234322929286126,-0.4443700962834153,0.6672875904251873,1.0388613080959754,0.0,0.0,0.07286521995482621,0.9973417968384434
5,-0.28405707846828687,0.0,0.015474712933712942,0.46288601959804165,-0.34725018337850355,0.6750246513124045,1.0337030704514043,0.0,0.0,0.1064113744672463,0.9943221909341013
6,-0.2819735373244295,1.3877787807814457e-17,0.015474712933712942,0.4020184358865679,-0.2524346074802374,0.6889520790657808,1.0285448328068334,0.0,0.0,0.13955531368216054,0.9902142770244599
7,-0.28117187098786445,0.0,0.015474712933712942,0.3424697321083226,-0.15992470524149316,0.7090734644672424,1.0233865951622623,0.0,0.0,0.1714607092072634,0.9851909587476645
8,-0.2815055843395599,0.0,0.015474712933712942,0.2848320839770898,-0.06962607774255229,0.7351352144255269,1.0182283575176914,0.0,0.0,0.2018251804324517,0.9794215622209919
9,-0.2828209379424463,0.0,0.015474712933713053,0.22956412313912478,0.018555673936303568,0.7668837358493714,1.0130701198731205,0.0,0.0,0.2304242643696832,0.9730902622006298
10,-0.2849626817137605,1.3877787807814457e-17,0.015474712933712942,0.17698726939397402,0.10471494871479282,0.8040654356475136,1.0079118822285493,0.0,0.0,0.25711170191953964,0.9663816910186357
11,-0.2877789623683096,2.7755575615628914e-17,0.015474712933712942,0.1272944552129749,0.18894614551263386,0.8464267207286912,1.0027536445839784,0.0,0.0,0.28181258406570187,0.959469471876105
12,-0.2911251218349351,0.0,0.015474712933712942,0.08056714444656476,0.2713436632495451,0.8937139980016414,0.9975954069394074,0.0,0.0,0.3045120295211829,0.9525084901862504
13,-0.29486632567204335,2.7755575615628914e-17,0.015474712933712942,0.036796463754781294,0.3520019008452447,0.9456736743751017,0.9924371692948364,0.0,0.0,0.32524198371699764,0.9456308222704208
14,-0.2988791216387712,0.0,0.015474712933712942,-0.004094974293650577,0.43101525721945133,1.0020521567578098,0.9872789316502655,0.0,0.0,0.3440681528805646,0.9389446768438258
15,-0.303052118123524,0.0,0.015474712933712942,-0.04223287803970588,0.5084781312918831,1.0625958520585033,0.9821206940056945,0.0,0.0,0.36107835022464296,0.9325354818981689
16,-0.30728600114258997,0.0,0.015474712933712942,-0.07777397567215216,0.5844849219822588,1.1270511671859194,0.9769624563611234,0.0,0.0,0.37637286658152413,0.926468275388427
17,-0.3114930970372515,-2.7755575615628914e-17,0.015474712933713053,-0.11089204518603968,0.6591300282102962,1.1951645090487955,0.9718042187165525,0.0,0.0,0.39005699140119776,0.9207907164274877
18,-0.3155966552045686,0.0,0.015474712933712942,-0.14176717444600884,0.7325078488957142,1.2666822845558696,0.9666459810719815,0.0,0.0,0.40223551390684403,0.9155362315889508
19,-0.3195299856051122,0.0,0.015474712933712942,-0.17057785654657265,0.804712782958231,1.3413509006158788,0.9614877434274105,0.0,0.0,0.4130088918396121,0.9107269927159377
20,-0.3232355481187379,-2.7755575615628914e-17,0.015474712933712942,-0.19749540919243813,0.8758392293175651,1.4189167641375606,0.9563295057828395,0.0,0.0,0.4224707366870134,0.906376564482518
21,-0.3266640592138951,0.0,0.015474712933713053,-0.22268020068604855,0.9459815868934346,1.4991262820296525,0.9511712681382686,0.0,0.0,0.43070628527766347,0.902492158316246
22,-0.3297736570173823,0.0,0.015474712933712942,-0.24627921725094248,1.0152342546055582,1.5817258612008924,0.9460130304936976,0.0,0.0,0.4377915761215765,0.8990764905596108
23,-0.33252914825712165,0.0,0.015474712933712942,-0.26842458203211406,1.083691631373654,1.6664619085600172,0.9408547928491265,0.0,0.0,0.44379310492512297,0.89612927639985
24,-0.33490134854989684,0.0,0.015474712933712942,-0.2892327147248357,1.1514481161174406,1.753080831015765,0.9356965552045555,0.0,0.0,0.4487677865709191,0.8936484061062483
25,-0.3368665198263827,0.0,0.015474712933712942,-0.30880389202157754,1.2185981077566361,1.8413290354768725,0.9305383175599846,0.0,0.0,0.4527630958359703,0.8916308535762028
26,-0.33840590415856,2.7755575615628914e-17,0.015474712933712942,-0.32722202889706764,1.2852360052109597,1.9309529288520777,0.9253800799154136,0.0,0.0,0.4558172950563869,0.8900733641265077
27,-0.3395053509334673,-2.7755575615628914e-17,0.015474712933712942,-0.3445545487075694,1.3514562074001286,2.0216989180501184,0.9202218422708426,0.0,0.0,0.4579596844590204,0.8889729621367539
28,-0.3401550334859892,5.551115123125783e-17,0.015474712933713053,-0.3608522474688818,1.417353113243862,2.1133134099797317,0.9150636046262717,0.0,0.0,0.45921083134606183,0.8883273115099292
29,-0.3403492514451522,0.0,0.015474712933713053,-0.3761490865234458,1.4830211216618778,2.205542811549655,0.9099053669817007,0.0,0.0,0.4595827493015396,0.8881349540156823
30,-0.3400863158015556,-2.7755575615628914e-17,0.015474712933712942,-0.39046187029882073,1.5485546315738945,2.298133529668626,0.9047471293371296,0.0,0.0,0.45907900957716014,0.8883954429000938
31,-0.3393685148187119,0.0,0.015474712933712942,-0.4037897841015823,1.6140480418996308,2.390831971245382,0.8995888916925586,0.0,0.0,0.45769477513435647,0.8891093818055857
32,-0.3382021602126063,0.0,0.015474712933712942,-0.4161137828297913,1.679595751558805,2.483384543188661,0.8944306540479876,0.0,0.0,0.45541675463806286,0.890278371968529
33,-0.33659771437729596,2.7755575615628914e-17,0.015474712933712942,-0.42739583693350147,1.745292159471135,2.5755376524072,0.8892724164034167,0.0,0.0,0.4522230800791303,0.8919048636731075
34,-0.33457000071710047,0.0,0.015474712933712942,-0.43757805863546395,1.81123166455634,2.6670377058097365,0.8841141787588457,0.0,0.0,0.4480831186769204,0.8939919008339868
35,-0.3321385002193018,-2.7755575615628914e-17,0.015474712933712942,-0.4465817510532865,1.8775086657341378,2.7576311103050077,0.8789559411142747,0.0,0.0,0.44295723835650874,0.896542740190101
36,-0.3293277380806499,0.0,0.015474712933713053,-0.45430644716189056,1.9442175619242466,2.8470642728017523,0.8737977034697038,0.0,0.0,0.4367965575952968,0.8995603188629979
37,-0.32616776422279153,-2.7755575615628914e-17,0.015474712933713053,-0.4606290362009882,2.0114527520463854,2.9350836002087073,0.8686394658251327,0.0,0.0,0.42954272614296446,0.9030465361307081
38,-0.322694730513831,2.7755575615628914e-17,0.015474712933712942,-0.4654031136743847,2.079308635020272,3.0214354994346095,0.8634812281805617,0.0,0.0,0.4211278045448168,0.9070013077384522
39,-0.3189515649113378,-2.7755575615628914e-17,0.015474712933712942,-0.4684587384173884,2.147879609765626,3.1058663773881965,0.8583229905359907,0.0,0.0,0.41147433909989756,0.9114213450771835
40,-0.3149887378071091,0.0,0.015474712933712942,-0.4696028358198071,2.217260075202163,3.1881226409782055,0.8531647528914197,0.0,0.0,0.400495766170527,0.9162986092314462
41,-0.3108651076036622,2.7755575615628914e-17,0.015474712933712942,-0.4686205467714514,2.2875444302496053,3.267950697113376,0.8480065152468488,0.0,0.0,0.3880973260657616,0.9216183947277777
42,-0.30664881979077463,-2.7755575615628914e-17,0.015474712933712942,-0.4652778783738344,2.3588270738276673,3.3450969527024426,0.8428482776022778,0.0,0.0,0.37417772047729186,0.9273570151233115
43,-0.3024182152228887,-2.7755575615628914e-17,0.015474712933712942,-0.459326046525615,2.4312024048560703,3.419307814654146,0.8376900399577067,0.0,0.0,0.3586318032346026,0.9334790997706898
44,-0.2982626778351858,-2.7755575615628914e-17,0.015474712933712942,-0.4505078780120467,2.5047648222545322,3.490329689877221,0.8325318023131358,0.0,0.0,0.34135464004884486,0.9399345773601073
45,-0.29428331938795466,0.0,0.015474712933712942,-0.4385665020180069,2.5796087249427693,3.5579089852804064,0.8273735646685648,0.0,0.0,0.32224728731504815,0.946655526481567
46,-0.2905933605088616,2.7755575615628914e-17,0.015474712933712942,-0.42325621241767053,2.655828511840503,3.621792107772441,0.8222153270239938,0.0,0.0,0.3012245889783347,0.9535532218994561
47,-0.2873180280446973,-2.7755575615628914e-17,0.015474712933712942,-0.404354671624035,2.73351858186745,3.681725464262058,0.8170570893794229,0.0,0.0,0.27822512813199446,0.960515891631125
48,-0.28459375806678144,0.0,0.015474712933713053,-0.3816743117633258,2.812773333943328,3.737455461657999,0.8118988517348519,0.0,0.0,0.25322314688715547,0.967407896329447
49,-0.28256648707113635,0.0,0.015474712933712942,-0.355068442208069,2.893687166987857,3.7887285068689986,0.8067406140902809,0.0,0.0,0.2262417322764631,0.9740711876328881
50,-0.2813888508428043,0.0,0.015474712933713053,-0.32442329167819134,2.976354479920754,3.8352910068037973,0.80158237644571,0.0,0.0,0.19736588074910974,0.9803298981037598
51,-0.28121621044322914,0.0,0.015474712933712942,-0.2896186638826671,3.0608696716617385,3.8768893683711303,0.7964241388011388,0.0,0.0,0.16675332320384428,0.9859986456382556
52,-0.2822015964479309,0.0,0.015474712933712942,-0.25041998879072613,3.1473271411305284,3.9132699984797377,0.7912659011565679,0.0,0.0,0.13464046801831672,0.990894517278105
53,-0.2844897479750946,0.0,0.015474712933712942,-0.206213916174068,3.235821287246842,3.944179304038352,0.7861076635119969,0.0,0.0,0.10134245631111043,0.994851600264497
54,-0.28812017947550356,0.0,0.015474712933712942,-0.15768485676687757,3.3264465089303976,3.9693636919557163,0.7809494258674259,0.0,0.0,0.06793998634812025,0.9976894097137732
55,-0.29270745823967653,0.0,0.015474712933712942,-0.11021631288179681,3.4192972051009143,3.988569569140566,0.775791188222855,0.0,0.0,0.037209881397741326,0.9993074725660597
