frame_id,dx,dy,dz,angle,x,y,z,qx,qy,qz,qw
1,-0.3000564635243527,1.0842021724855044e-19,6.1014806092662965e-05,-0.1469249123442823,-0.5268236189271722,0.7606758900316353,0.7511186047783669,0.0,0.0,0.0011384417300725571,0.9999993519750037
2,-0.29981463546267606,0.0,6.101480609277399e-05,-0.13905763266632784,-0.42674009030479726,0.7617006797659078,0.7510982665096694,0.0,0.0,-0.003987789081686166,0.9999920487375087
3,-0.29954544871702715,8.673617379884035e-19,6.1014806092662965e-05,-0.12775036038258744,-0.32671224743067223,0.7620422763439987,0.7510779282409717,0.0,0.0,-0.01071895591180694,0.9999425503418488
4,-0.29930286322492194,-1.734723475976807e-18,6.101480609277399e-05,-0.11413496892528113,-0.22676793317892224,0.761359083187817,0.7510575899722742,0.0,0.0,-0.018482238056104987,0.9998291888499943
5,-0.2991269571757252,0.0,6.101480609277399e-05,-0.09959904502354941,-0.1269349904236723,0.7593095037192719,0.7510372517035766,0.0,0.0,-0.026583391051405933,0.9996465992140463
6,-0.29903152449541925,0.0,6.101480609277399e-05,-0.08530775789636101,-0.027235631870885773,0.7556210163476242,0.7510169134348791,0.0,0.0,-0.03443958723229183,0.9994067814615175
7,-0.2990093810577345,-3.469446951953614e-18,6.101480609277399e-05,-0.07150185177216023,0.07233045044611926,0.7502973994315425,0.7509965751661815,0.0,0.0,-0.04193036882556106,0.9991205353560463
8,-0.2990506813684455,3.469446951953614e-18,6.1014806092662965e-05,-0.05818863992056103,0.1717691946621865,0.7434115063170464,0.7509762368974838,0.0,0.0,-0.04905208629893014,0.9987962218739728
9,-0.29914602273575147,0.0,6.101480609277399e-05,-0.045373544870093,0.2710865389121596,0.7350361903501565,0.7509558986287863,0.0,0.0,-0.05580213251571,0.9984418470830934
10,-0.29928646348942756,0.0,6.1014806092662965e-05,-0.0330603178816225,0.3702884213308822,0.7252443048768926,0.7509355603600887,0.0,0.0,-0.062178817798920816,0.9980650252449129
11,-0.29946353711692175,6.938893903907228e-18,6.101480609277399e-05,-0.02125125535175279,0.4693807800531979,0.7141087032432748,0.7509152220913912,0.0,0.0,-0.06818124706937503,0.9976729511959642
12,-0.29966926276290523,-6.938893903907228e-18,6.101480609277399e-05,-0.009947409088199244,0.5683695532139504,0.7017022387953231,0.7508948838226935,0.0,0.0,-0.07380920088307341,0.9972723809797412
13,-0.29989615254694546,0.0,6.101480609277399e-05,0.0008512119468262469,0.667260678947983,0.6880977648790576,0.750874545553996,0.0,0.0,-0.07906302179878948,0.9968696196514588
14,-0.3001372161495898,6.938893903907228e-18,6.101480609277399e-05,0.011145450230967163,0.7660600953901399,0.6733681348404985,0.7508542072852984,0.0,0.0,-0.08394350714759612,0.9964705151723062
15,-0.3003859631029268,0.0,6.1014806092662965e-05,0.020936819887805547,0.8647737406752638,0.6575862020256658,0.7508338690166008,0.0,0.0,-0.08845180895908958,0.9960804573385951
16,-0.3006364031999064,0.0,6.101480609277399e-05,0.03022733931863733,0.9634075529381994,0.6408248197805796,0.7508135307479032,0.0,0.0,-0.0925893415275451,0.9957043807453574
17,-0.3008830454096261,1.3877787807814457e-17,6.1014806092662965e-05,0.039019376685971024,1.0619674703137896,0.6231568414512598,0.7507931924792056,0.0,0.0,-0.09635769687559892,0.9953467708556804
18,-0.3011208956551325,-6.938893903907228e-18,6.101480609277399e-05,0.047315508356324865,1.160459430936878,0.6046551203837268,0.7507728542105081,0.0,0.0,-0.09975856819183418,0.9950116723296843
19,-0.3013454537776603,0.0,6.101480609277399e-05,0.05511839015530795,1.2588893729423087,0.5853925099240004,0.7507525159418105,0.0,0.0,-0.10279368117873093,0.9947026988551532
20,-0.30155270997775435,6.938893903907228e-18,6.101480609277399e-05,0.06243064109041524,1.3572632344649251,0.5654418634181009,0.750732177673113,0.0,0.0,-0.10546473314505446,0.9944230438111551
21,-0.301739140990379,0.0,6.101480609277399e-05,0.06925473904795901,1.4555869536395705,0.5448760342120481,0.7507118394044153,0.0,0.0,-0.10777333960742425,0.9941754911834544
22,-0.30190170621851,0.0,6.1014806092662965e-05,0.07559292786138413,1.553866468601089,0.5237678756518623,0.7506915011357177,0.0,0.0,-0.10972098812517173,0.9939624262339276
23,-0.30203784401830497,-1.3877787807814457e-17,6.101480609277399e-05,0.08144713506913054,1.6521077174843242,0.5021902410835635,0.7506711628670202,0.0,0.0,-0.11130899907618597,0.9937858455042805
24,-0.30214546829895855,0.0,6.1014806092662965e-05,0.08681889962130174,1.750316638424119,0.4802159838531717,0.7506508245983226,0.0,0.0,-0.11253849308524505,0.9936473658064526
25,-0.3022229655718946,1.3877787807814457e-17,6.101480609277399e-05,0.09170930874464217,1.8484991695553177,0.4579179573067072,0.750630486329625,0.0,0.0,-0.11341036483652019,0.9935482319181326
26,-0.3022691925569234,0.0,6.101480609277399e-05,0.09611894312261215,1.9466612490127642,0.43536901479018986,0.7506101480609274,0.0,0.0,-0.11392526303520815,0.9934893227621314
27,-0.30228347442733094,1.3877787807814457e-17,6.101480609277399e-05,0.10004782947717794,2.0448088149313013,0.4126420096496397,0.7505898097922299,0.0,0.0,-0.11408357632655237,0.9934711559036546
28,-0.3022656037512219,0.0,6.101480609277399e-05,0.10349539953359031,2.1429478054457736,0.38980979523107706,0.7505694715235323,0.0,0.0,-0.11388542503128085,0.9934938902506872
29,-0.30221584016272074,0.0,6.1014806092662965e-05,0.10646045418530739,2.241084158691023,0.36694522488052184,0.7505491332548346,0.0,0.0,-0.11333065861225802,0.9935573268908603
30,-0.3021349107732661,1.3877787807814457e-17,6.101480609277399e-05,0.10894113142162747,2.3392238128018947,0.34412115194399423,0.7505287949861371,0.0,0.0,-0.11241885884589874,0.9936609080444827
31,-0.30202401131017503,0.0,6.1014806092662965e-05,0.11093487618976139,2.4373727059132317,0.3214104297675141,0.7505084567174395,0.0,0.0,-0.11114934873143509,0.9938037141591783
32,-0.3018848079462467,0.0,6.101480609277399e-05,0.11243840976995151,2.5355367761598786,0.29888591169710177,0.750488118448742,0.0,0.0,-0.10952120722966256,0.9939844592180289
33,-0.3017194397603777,1.3877787807814457e-17,6.101480609277399e-05,0.11344769534669943,2.633721961676678,0.27662045107877703,0.7504677801800443,0.0,0.0,-0.10753328997809504,0.9942014843815548
34,-0.30153052174440925,6.938893903907228e-18,6.101480609277399e-05,0.1139578951083536,2.7319342005984733,0.2546869012585602,0.7504474419113468,0.0,0.0,-0.10518425617952822,0.9944527501354499
35,-0.3013211482456298,-6.938893903907228e-18,6.101480609277399e-05,0.11396331216029013,2.8301794310601083,0.23315811558247135,0.7504271036426492,0.0,0.0,-0.10247260190332125,0.9947358271717991
36,-0.3010948967071801,-6.938893903907228e-18,6.1014806092662965e-05,0.11345730740718954,2.9284635911964267,0.2121069473965304,0.7504067653739516,0.0,0.0,-0.09939670007067308,0.995047886292444
37,-0.3008558315399684,-6.938893903907228e-18,6.101480609277399e-05,0.11243217671099755,3.026792619142273,0.19160625004675746,0.750386427105254,0.0,0.0,-0.09595484741370305,0.9953856876898587
38,-0.3006085079295739,0.0,6.1014806092662965e-05,0.11087896598880917,3.12517245303249,0.17172887687917276,0.7503660888365564,0.0,0.0,-0.09214531869987069,0.9957455700336805
39,-0.30035797535002173,0.0,6.101480609277399e-05,0.10878718961399957,3.223609031001921,0.15254768123979617,0.7503457505678589,0.0,0.0,-0.08796642849437823,0.99612343986975
40,-0.3001097805236748,0.0,6.101480609277399e-05,0.10614439718537201,3.3221082911854096,0.13413551647464805,0.7503254122991613,0.0,0.0,-0.08341660068955821,0.9965147619224709
41,-0.2998699695329903,6.938893903907228e-18,6.101480609277399e-05,0.10293549924685366,3.420676171717801,0.1165652359297481,0.7503050740304638,0.0,0.0,-0.078494445957465,0.996914550979085
42,-0.2996450887565664,0.0,6.101480609277399e-05,0.09914170196578437,3.5193186107339365,0.09990969295111685,0.7502847357617661,0.0,0.0,-0.07319884717550684,0.9973173661238316
43,-0.2994421842693344,-6.938893903907228e-18,6.1014806092662965e-05,0.09473879016719343,3.6180415463686613,0.08424174088477376,0.7502643974930685,0.0,0.0,-0.06752905273060508,0.9977173081776757
44,-0.2992687993164906,0.0,6.101480609277399e-05,0.08969428687520119,3.7168509167568193,0.06963423307673955,0.750244059224371,0.0,0.0,-0.06148477742131844,0.9981080212809889
45,-0.29913296944412987,6.938893903907228e-18,6.1014806092662965e-05,0.08396259234486116,3.8157526600332528,0.05616002287303379,0.7502237209556734,0.0,0.0,-0.05506631044665063,0.9984826996266851
46,-0.29904321484851354,0.0,6.101480609277399e-05,0.07747629502163611,3.9147527143328062,0.04389196361967651,0.7502033826869758,0.0,0.0,-0.04827462969356676,0.9988341004030394
47,-0.29900852949266554,3.469446951953614e-18,6.101480609277399e-05,0.07012974536485657,4.013857017790323,0.03290290866268886,0.7501830444182782,0.0,0.0,-0.041111521213357954,0.9991545640307727
48,-0.2990383665358633,-3.469446951953614e-18,6.101480609277399e-05,0.06174566515200187,4.113071508540647,0.023265711348089302,0.7501627061495807,0.0,0.0,-0.033579702413453816,0.9994360427690328
49,-0.2991426167343145,0.0,6.101480609277399e-05,0.05200095668891354,4.212402124718621,0.015053225021899097,0.7501423678808831,0.0,0.0,-0.025683108631312818,0.9996701345599118
50,-0.2993271905703606,-1.734723475976807e-18,6.1014806092662965e-05,0.0407951809265152,4.311854804459089,0.008338303030137828,0.7501220296121854,0.0,0.0,-0.017585090368054754,0.9998453703432083
51,-0.2995751705778473,-8.673617379884035e-19,6.101480609277399e-05,0.029282191099030217,4.411435485896896,0.0031937987188257466,0.7501016913434879,0.0,0.0,-0.009902802310846719,0.9999509660510321
