frame_id,dx,dy,dz,angle,x,y,z,qx,qy,qz,qw
1,-0.3000019286139224,0.0,0.012690253746926339,-0.028802286935030997,-1.1734951131290137,0.16673176103370624,1.0080351595208366,0.0,0.0,0.00020111274457190016,0.9999999797768317
2,-0.2999936320799608,0.0,0.01269025374692645,-0.02742118824417357,-1.0734922566100664,0.16691276366376703,1.0038050749385279,0.0,0.0,-0.0007039142328577149,0.9999997522523457
3,-0.29998424233559867,0.0,0.012690253746926339,-0.025440535761367362,-0.973491304437084,0.1669730978737873,0.999574990356219,0.0,0.0,-0.0018907500280608142,0.9999982125305682
4,-0.2999755113063306,0.0,0.012690253746926339,-0.02305761899191105,-0.8734932087830489,0.16685242945374676,0.9953449057739102,0.0,0.0,-0.003259734122689734,0.999994687052611
5,-0.29996878711701025,0.0,0.012690253746926339,-0.02051170836789007,-0.7734989218209434,0.16649042419362514,0.9911148211916014,0.0,0.0,-0.004691233076527618,0.999988996105568
6,-0.2999646016596346,0.0,0.012690253746926339,-0.018002251732259243,-0.6735092069502212,0.16583870947224785,0.9868847366092927,0.0,0.0,-0.006085526121056151,0.9999814830144756
7,-0.2999627790278965,0.0,0.01269025374692645,-0.015569191814616882,-0.5735240724762215,0.16489675902382298,0.9826546520269839,0.0,0.0,-0.007422646177359863,0.9999724517824107
8,-0.29996304399600415,-8.673617379884035e-19,0.01269025374692645,-0.01321258306751389,-0.4735433379307546,0.16367600817140435,0.9784245674446751,0.0,0.0,-0.00870257113445684,0.9999621319108287
9,-0.29996513306476363,0.0,0.01269025374692645,-0.010932471238279305,-0.3735668228456307,0.16218789223804572,0.9741944828623663,0.0,0.0,-0.009925284137463396,0.9999507431542769
10,-0.2999687944787595,0.0,0.012690253746926339,-0.008728894450878242,-0.2735943467526603,0.1604438465468009,0.9699643982800574,0.0,0.0,-0.011090773023689944,0.9999384954854659
11,-0.29997378824024845,8.673617379884035e-19,0.012690253746926339,-0.00660188425690162,-0.17362572918365357,0.15845530642072364,0.9657343136977486,0.0,0.0,-0.01219902978314142,0.9999255890676816
12,-0.29997988612010634,0.0,0.01269025374692645,-0.004551466656815682,-0.07366078967042088,0.15623370718286778,0.9615042291154399,0.0,0.0,-0.013250050043696452,0.9999122142337494
13,-0.2999868716661645,0.0,0.01269025374692645,-0.002577663092967891,0.026300652255227066,0.15379048415628704,0.9572741445331311,0.0,0.0,-0.01424383258118302,0.9998985514707975
14,-0.29999454020923705,0.0,0.01269025374692645,-0.000680491416235076,0.12625877706148056,0.15113707266403528,0.9530440599508223,0.0,0.0,-0.015180378854528838,0.9998847714101026
15,-0.3000026988671512,0.0,0.012690253746926339,0.0011400331713307572,0.22621376521652858,0.14828490802916625,0.9488139753685134,0.0,0.0,-0.016059692566119263,0.9998710348213322
16,-0.3000111665470465,0.0,0.012690253746926339,0.0028838971949813608,0.3261657971885615,0.14524542557473372,0.9445838907862046,0.0,0.0,-0.016881779247464406,0.9998574926105419
17,-0.3000197739462206,1.734723475976807e-18,0.012690253746926339,0.004551088003369178,0.4261150534457684,0.1420300606237915,0.9403538062038959,0.0,0.0,-0.01764664587024347,0.9998442858213124
18,-0.3000283635517656,1.734723475976807e-18,0.012690253746926339,0.006141592878021955,0.5260617144563391,0.1386502484993934,0.9361237216215871,0.0,0.0,-0.01835430048277036,0.9998315456384581
19,-0.30003678963922575,-1.734723475976807e-18,0.01269025374692645,0.007655398151066271,0.6260059606884636,0.13511742452459313,0.9318936370392783,0.0,0.0,-0.019004751871901128,0.9998193933937707
20,-0.3000449182705011,0.0,0.01269025374692645,0.009092488325003402,0.7259479726103308,0.13144302402244457,0.9276635524569695,0.0,0.0,-0.019598009250386846,0.9998079405732991
21,-0.30005262729118654,1.734723475976807e-18,0.01269025374692645,0.010452845187031386,0.8258879306901313,0.12763848231600144,0.9234334678746607,0.0,0.0,-0.02013408196965932,0.9997972888257094
22,-0.30005980632754403,0.0,0.012690253746926339,0.01173644690880677,0.9258260153960544,0.12371523472831758,0.9192033832923518,0.0,0.0,-0.020612979258028588,0.9997875299712975
23,-0.30006635678326254,0.0,0.012690253746926339,0.012943267120542883,1.0257624071962896,0.1196847165824467,0.9149732987100431,0.0,0.0,-0.02103470998425962,0.9997787460112753
24,-0.30007219183616535,-1.734723475976807e-18,0.012690253746926339,0.01407327394586742,1.1256972865590265,0.11555836320144268,0.9107432141277343,0.0,0.0,-0.021399282446493955,0.9997710091369799
25,-0.3000772364349968,1.734723475976807e-18,0.01269025374692645,0.01512642898073609,1.2256308339524544,0.11134760990835926,0.9065131295454255,0.0,0.0,-0.02170670418647548,0.9997643817386979
26,-0.3000814272964099,0.0,0.01269025374692645,0.01610268619576266,1.325563229844764,0.10706389202625023,0.9022830449631167,0.0,0.0,-0.021956981829042734,0.9997589164138317
27,-0.30008471290225786,0.0,0.01269025374692645,0.017001990736295988,1.4254946547041445,0.10271864487816937,0.898052960380808,0.0,0.0,-0.022150120946848463,0.9997546559741745
28,-0.3000870534972707,0.0,0.012690253746926339,0.017824277588133073,1.5254252889987854,0.09832330378717045,0.8938228757984991,0.0,0.0,-0.0222861259502725,0.9997516334520933
29,-0.3000884210871947,0.0,0.012690253746926339,0.018569470068425038,1.625355313196876,0.0938893040763073,0.8895927912161903,0.0,0.0,-0.022365000002497082,0.9997498721054623
30,-0.3000887994374427,-1.734723475976807e-18,0.012690253746926339,0.019237478090484744,1.7252849077666068,0.08942808106863369,0.8853627066338815,0.0,0.0,-0.022386744959720324,0.9997493854212207
31,-0.3000881840722998,-1.734723475976807e-18,0.01269025374692645,0.019828196136960293,1.8252142531761668,0.0849510700872034,0.8811326220515727,0.0,0.0,-0.02235136133649046,0.9997501771174665
32,-0.3000865822747037,0.0,0.01269025374692645,0.02034150085696787,1.9251435298937463,0.0804697064550702,0.8769025374692639,0.0,0.0,-0.022258848296148753,0.9997522411440392
33,-0.3000840130866011,0.0,0.01269025374692645,0.02077724817757239,2.0250729183875347,0.07599542549528795,0.8726724528869552,0.0,0.0,-0.022109203666380924,0.9997555616815735
34,-0.3000805073098809,0.0,0.012690253746926339,0.02113526978596215,2.125002599125721,0.07153966253091033,0.8684423683046463,0.0,0.0,-0.021902423979877943,0.9997601131390498
35,-0.3000761075078465,0.0,0.012690253746926339,0.021415368792281102,2.2249327525764957,0.06711385288499123,0.8642122837223375,0.0,0.0,-0.02163850454012311,0.9997658601498989
36,-0.30007086800719207,0.0,0.01269025374692645,0.021617314319082464,2.324863559208048,0.06272943188058436,0.8599821991400287,0.0,0.0,-0.021317439512320634,0.9997727575667575
37,-0.3000648549004266,0.0,0.012690253746926339,0.021740834674096467,2.4247951994885675,0.05839783484074354,0.8557521145577199,0.0,0.0,-0.02093922203949493,0.9997807504550089
38,-0.3000581460486641,1.734723475976807e-18,0.01269025374692645,0.02178560863677467,2.524727853886245,0.05413049708852255,0.8515220299754112,0.0,0.0,-0.020503844383790014,0.999789774085275
39,-0.30005083108469305,0.0,0.012690253746926339,0.021751254208136846,2.6246617028692687,0.0499388539469752,0.8472919453931023,0.0,0.0,-0.020011298093005885,0.9997997539250711
40,-0.30004301141621775,1.734723475976807e-18,0.01269025374692645,0.021637313910085578,2.724596926905828,0.04583434073915525,0.8430618608107936,0.0,0.0,-0.019461574192410156,0.9998106056298629
41,-0.300034800229157,0.0,0.012690253746926339,0.021443235330651282,2.824533706464115,0.04182839278811648,0.8388317762284847,0.0,0.0,-0.01885466340186361,0.9998222350338096
42,-0.3000263224908392,0.0,0.012690253746926339,0.02116834502445427,2.924472222012317,0.03793244541691272,0.8346016916461759,0.0,0.0,-0.01819055637829923,0.9998345381405105
43,-0.30001771495297064,1.734723475976807e-18,0.01269025374692645,0.020811812975191104,3.024412654018623,0.03415793394859774,0.8303716070638671,0.0,0.0,-0.017469243983589254,0.999847401114111
44,-0.3000091261541598,-1.734723475976807e-18,0.01269025374692645,0.020372603409127978,3.1243551829512266,0.030516293706225245,0.8261415224815584,0.0,0.0,-0.016690717577828754,0.9998607002711614
45,-0.30000071642188164,1.734723475976807e-18,0.01269025374692645,0.019849405466297376,3.2242999892783133,0.027018960012849175,0.8219114378992496,0.0,0.0,-0.015854969338058123,0.9998743020736602
46,-0.299992657873573,0.0,0.012690253746926339,0.01924053346110439,3.3242472534680756,0.023677368191523107,0.8176813533169407,0.0,0.0,-0.014961992602428684,0.9998880631237503
47,-0.29998513441675784,0.0,0.012690253746926339,0.01854378002670036,3.4241971559886997,0.020502953565301157,0.8134512687346319,0.0,0.0,-0.01401178223981109,0.9999018301605733
48,-0.29997834174785803,0.0,0.012690253746926339,0.017756194073897426,3.52414987730838,0.01750715145723672,0.8092211841523231,0.0,0.0,-0.013004335044811285,0.9999154400598294
49,-0.29997248734951815,0.0,0.012690253746926339,0.016873734627893128,3.6241055978953023,0.014701397190383936,0.8049910995700144,0.0,0.0,-0.011939650158156243,0.9999287198366196
50,-0.299967790486118,0.0,0.01269025374692645,0.015890711497675958,3.724064498217657,0.012097126087796312,0.8007610149877056,0.0,0.0,-0.010817729512361068,0.9999414866521927
51,-0.2999644821972203,0.0,0.01269025374692645,0.014798842421831274,3.824026758743636,0.009705773472527823,0.7965309304053968,0.0,0.0,-0.009638578302581658,0.9999535478252503
52,-0.29996280528865027,-8.673617379884035e-19,0.01269025374692645,0.013585580730222077,3.9239925599414263,0.007538774667632087,0.792300845823088,0.0,0.0,-0.008402205482497633,0.9999647008484999
53,-0.29996301432086164,0.0,0.012690253746926339,0.012230958196450566,4.023962082279219,0.005607564996163078,0.7880707612407791,0.0,0.0,-0.007108624285048724,0.9999747334111867
54,-0.2999653755943,4.336808689942018e-19,0.012690253746926339,0.010701138863159118,4.1239355062252026,0.003923579781174497,0.7838406766584703,0.0,0.0,-0.0057578527677860395,0.9999834234283609
55,-0.29997016597889,0.0,0.01269025374692645,0.008934732391877828,4.223913012247569,0.0024982543457200967,0.7796105920761616,0.0,0.0,-0.0043501856969605495,0.9999905378974353
56,-0.29997745188415387,-2.168404344971009e-19,0.01269025374692645,0.006936800270765282,4.323894780814506,0.001343024012853744,0.7753805074938528,0.0,0.0,-0.002922738365334945,0.9999957287911023
57,-0.29998648925543964,0.0,0.01269025374692645,0.004919911416715803,4.423880992394202,0.00046932410562910976,0.771150422911544,0.0,0.0,-0.0015863698039171377,0.999998741714631
