frame_id,dx,dy,dz,angle,x,y,z,qx,qy,qz,qw
1,-0.3000018225962596,-2.710505431213761e-20,-0.02894736842105264,-0.02644111986572718,-0.6150242832092725,0.13826737954003607,0.20964912280701756,0.0,0.0,0.00020472114898075958,0.9999999790446253
2,-0.2999940169802343,0.0,-0.02894736842105264,-0.025026887835837466,-0.5150215870347862,0.1384516296896297,0.2192982456140351,0.0,0.0,-0.0007165428337756407,0.9999997432831508
3,-0.2999853273816524,0.0,-0.02894736842105264,-0.022998844676441997,-0.4150206883099573,0.13851304640616097,0.22894736842105265,0.0,0.0,-0.0019242834566403097,0.9999981485648753
4,-0.2999774892580364,0.0,-0.02894736842105261,-0.020561402537457807,-0.31502248575961495,0.1383902129730985,0.2385964912280702,0.0,0.0,-0.0033151322903039572,0.999994504933851
5,-0.29997178983994094,4.336808689942018e-19,-0.02894736842105264,-0.017962733237014968,-0.2150278781085877,0.13802171267391117,0.24824561403508774,0.0,0.0,-0.004765007684518673,0.9999886472864412
6,-0.2999686727669113,4.336808689942018e-19,-0.02894736842105261,-0.01540970083664891,-0.11503758253973626,0.13735853493823733,0.2578947368421053,0.0,0.0,-0.00617048363644693,0.9999809623846307
7,-0.2999679082253963,0.0,-0.028947368421052666,-0.012943735464735758,-0.015051590068049193,0.13640129378039384,0.2675438596491228,0.0,0.0,-0.00751085262627873,0.9999717931486
8,-0.29996918206068035,0.0,-0.02894736842105261,-0.010564896533251829,0.08493028983345335,0.1351630093608672,0.2771929824561404,0.0,0.0,-0.00878609369893462,0.999961401533836
9,-0.2999721953391258,0.0,-0.02894736842105261,-0.00827323425862618,0.18490824769175096,0.13365670184014383,0.2868421052631579,0.0,0.0,-0.009996191805062057,0.9999500368265388
10,-0.2999766643667491,8.673617379884035e-19,-0.02894736842105261,-0.006068791128995395,0.2848824740338235,0.1318953913787103,0.29649122807017547,0.0,0.0,-0.011141137071921622,0.9999379356063779
11,-0.2999823207036369,0.0,-0.028947368421052666,-0.0039516033342634,0.3848531593866507,0.12989209813705302,0.306140350877193,0.0,0.0,-0.012220924110708183,0.9999253217185173
12,-0.29998891117470167,0.0,-0.028947368421052666,-0.0019217021625806373,0.48482049427721213,0.1276598422756584,0.3157894736842105,0.0,0.0,-0.013235551360634661,0.9999124062537578
13,-0.29999619787726134,0.0,-0.02894736842105261,2.0884632214508703e-05,0.5847846692324873,0.12521164395501305,0.3254385964912281,0.0,0.0,-0.014185020470034351,0.9998993875356984
14,-0.3000039581858832,0.0,-0.02894736842105261,0.0018761314865463445,0.6847458747794565,0.12256052333560333,0.33508771929824566,0.0,0.0,-0.01506933571467196,0.9998864511138845
15,-0.30001198475492985,0.0,-0.028947368421052666,0.0036440136994976176,0.7847043014450986,0.1197195005779158,0.3447368421052632,0.0,0.0,-0.015888503453403355,0.9998737697619691
16,-0.3000200855191885,0.0,-0.028947368421052666,0.00532450611310914,0.8846601397563942,0.11670159584243689,0.3543859649122807,0.0,0.0,-0.016642531621272896,0.9998615034799745
17,-0.3000280836929687,1.734723475976807e-18,-0.02894736842105261,0.006917581790110823,0.9846135802403225,0.11351982928965305,0.36403508771929827,0.0,0.0,-0.01733142926010119,0.9998497994998059
18,-0.30003581776800015,0.0,-0.02894736842105261,0.008423210676216843,1.0845648134238632,0.11018722108005082,0.37368421052631584,0.0,0.0,-0.017955206086582503,0.9998387922932318
19,-0.3000431415104497,-1.734723475976807e-18,-0.028947368421052666,0.009841358231139213,1.1845140298339962,0.10671679137411662,0.38333333333333336,0.0,0.0,-0.018513872097885953,0.9998286035816054
20,-0.3000499239573477,0.0,-0.028947368421052666,0.01117198400873171,1.2844614199977007,0.10312156033233695,0.3929824561403509,0.0,0.0,-0.019007437214735048,0.9998193423466701
21,-0.30005604941267916,0.0,-0.02894736842105261,0.012415040161935866,1.384407174441957,0.09941454811519829,0.40263157894736845,0.0,0.0,-0.019435910961926105,0.9998111048418497
22,-0.30006141744337983,0.0,-0.02894736842105261,0.013570469842147843,1.484351483693745,0.09560877488318707,0.412280701754386,0.0,0.0,-0.019799302186236108,0.999803974603491
23,-0.3000659428754368,-1.734723475976807e-18,-0.02894736842105261,0.014638205454841985,1.584294538280044,0.09171726079678981,0.42192982456140354,0.0,0.0,-0.020097618811667422,0.9997980224615874
24,-0.3000695557902731,0.0,-0.028947368421052666,0.015618166723181774,1.6842365287278334,0.08775302601649296,0.43157894736842106,0.0,0.0,-0.020330867631973865,0.9997933065495743
25,-0.3000722015215695,1.734723475976807e-18,-0.02894736842105261,0.01651025849814174,1.784177645564093,0.08372909070278303,0.44122807017543864,0.0,0.0,-0.020499054140416514,0.9997898723128517
26,-0.3000738406526506,0.0,-0.028947368421052666,0.017314368236236163,1.884118079315803,0.07965847501614648,0.45087719298245615,0.0,0.0,-0.020602182396702976,0.9997877525157493
27,-0.30007444901452324,-1.734723475976807e-18,-0.02894736842105261,0.018030363042749048,1.9840580205099432,0.07555419911706972,0.46052631578947373,0.0,0.0,-0.020640254931070277,0.9997869672467132
28,-0.30007401768465175,-1.734723475976807e-18,-0.028947368421052666,0.018658086147185893,2.0839976596734924,0.07142928316603932,0.47017543859649125,0.0,0.0,-0.020613272685483186,0.999787523921555
29,-0.30007255298648877,0.0,-0.02894736842105261,0.0191973526353322,2.1839371873334312,0.06729674732354167,0.4798245614035088,0.0,0.0,-0.02052123499192776,0.9997894172846631
30,-0.30007007648981043,0.0,-0.028947368421052555,0.019647944204213365,2.283876794016738,0.06316961175006333,0.48947368421052634,0.0,0.0,-0.020364139587794736,0.9997926294081432
31,-0.30006662501180903,0.0,-0.028947368421052666,0.0200096026255749,2.3838166702503942,0.05906089660609069,0.4991228070175439,0.0,0.0,-0.020141982668356557,0.9997971296889122
32,-0.30006225061894043,0.0,-0.02894736842105261,0.020282021490078444,2.4837570065613788,0.054983622052110284,0.5087719298245614,0.0,0.0,-0.019854758976355184,0.9998028748438318
33,-0.3000570206294307,-1.734723475976807e-18,-0.02894736842105272,0.020464835642751672,2.583697993476672,0.050950808248608564,0.5184210526315789,0.0,0.0,-0.019502461928728253,0.9998098089030326
34,-0.30005101761636577,0.0,-0.02894736842105261,0.020557607486432043,2.6836398215232524,0.046975475356072015,0.5280701754385966,0.0,0.0,-0.019085083780511238,0.9998178632016388
35,-0.3000443394112413,0.0,-0.02894736842105261,0.020559808986371487,2.7835826812280997,0.043070643534987095,0.537719298245614,0.0,0.0,-0.01860261582596103,0.9998269563701669
36,-0.30003709910782445,1.734723475976807e-18,-0.02894736842105261,0.02047079769540813,2.8835267631181947,0.039249332945840265,0.5473684210526316,0.0,0.0,-0.018055048636952235,0.9998369943239335
37,-0.3000294250661552,0.0,-0.02894736842105261,0.020289784336043087,2.9834722577205164,0.03552456374911804,0.5570175438596492,0.0,0.0,-0.017442372338699892,0.9998478702518689
38,-0.30002146091649007,0.0,-0.02894736842105261,0.02001578825684773,3.083419355562045,0.0319093561053069,0.5666666666666667,0.0,0.0,-0.016764576922863702,0.9998594646052001
39,-0.3000133655629456,-1.734723475976807e-18,-0.02894736842105272,0.019647575138550637,3.1833682471697604,0.02841673017489324,0.5763157894736842,0.0,0.0,-0.01602165259808267,0.9998716450865213
40,-0.3000053131866065,0.0,-0.02894736842105261,0.019183568149597905,3.283319123070641,0.025059706118363625,0.5859649122807018,0.0,0.0,-0.01521359017798301,0.9998842666398429
41,-0.29999749324779523,-1.734723475976807e-18,-0.02894736842105272,0.01862171840534503,3.3832721737916676,0.021851304096204463,0.5956140350877193,0.0,0.0,-0.014340381506685635,0.9998971714422652
42,-0.2999901104872029,0.0,-0.02894736842105261,0.0179593112862466,3.4832275898598195,0.018804544268902296,0.605263157894737,0.0,0.0,-0.013402019921825173,0.9999101888979904
43,-0.29998338492555054,0.0,-0.02894736842105261,0.017192668379373503,3.583185561802076,0.015932446796943556,0.6149122807017544,0.0,0.0,-0.012398500755063246,0.9999231356354481
44,-0.2999775518613909,0.0,-0.02894736842105261,0.016316673157458106,3.6831462801454182,0.013248031840814703,0.624561403508772,0.0,0.0,-0.011329821870052634,0.999935815508372
45,-0.29997286186669225,8.673617379884035e-19,-0.02894736842105261,0.015323985796601464,3.783109935416824,0.010764319561002211,0.6342105263157896,0.0,0.0,-0.010195984237767079,0.9999480196017307
46,-0.2999695807797508,0.0,-0.02894736842105261,0.014203680737737683,3.8830767181432746,0.008494330117992555,0.643859649122807,0.0,0.0,-0.008996992549067611,0.9999595262434735
47,-0.29996798969501015,0.0,-0.02894736842105261,0.012938743369829087,3.9830468188517494,0.00645108367227229,0.6535087719298246,0.0,0.0,-0.007732855864324806,0.9999701010231163
48,-0.2999683849493111,4.336808689942018e-19,-0.02894736842105261,0.011501131439441488,4.0830204280692275,0.004647600384327766,0.6631578947368422,0.0,0.0,-0.006403588299850649,0.9999794968182528
49,-0.2999710781040494,0.0,-0.02894736842105261,0.009841103917518346,4.182997736322689,0.0030969004146455537,0.6728070175438596,0.0,0.0,-0.0050092097508288,0.9999874538301329
50,-0.2999763426586597,0.0,-0.02894736842105272,0.007901782898210107,4.282978934139113,0.0018120039237121133,0.6824561403508772,0.0,0.0,-0.003561550902523555,0.9999936576574717
51,-0.29998388598342596,0.0,-0.02894736842105261,0.005833801739450667,4.38296421204548,0.0008059310720138768,0.6921052631578948,0.0,0.0,-0.002151865115830589,0.9999976847355814
52,-0.29999255239978356,0.0,-0.02894736842105261,0.0038850181690400923,4.482953760568769,9.170202003727645e-05,0.7017543859649122,0.0,0.0,-0.0009041370977710513,0.9999995912679707
